{
  "AcquisitionMatrixPE": 188,
  "AcquisitionNumber": 1,
  "AcquisitionTime": "18:04:51.660000",
  "BandwidthPerPixelPhaseEncode": 19.46,
  "BaseResolution": 188,
  "ConversionSoftware": "dcm2niix",
  "ConversionSoftwareVersion": "v1.0.20180606 GCC4.8.5",
  "DerivedVendorReportedEchoSpacing": 0.000820013,
  "DeviceSerialNumber": "18930",
  "DwellTime": 1.9e-06,
  "EchoTime": 0.02,
  "EffectiveEchoSpacing": 0.000273338,
  "FlipAngle": 75,
  "ImageComments": "Unaliased_MB2_PE2",
  "ImageOrientationPatientDICOM": [0.995998, 0.0856089, 0.0256591, 0.00659952, 0.21587, -0.9764],
  "ImageType": [
    "ORIGINAL",
    "PRIMARY",
    "M",
    "MB",
    "ND",
    "MOSAIC"
],
  "InPlanePhaseEncodingDirectionDICOM": "COL",
  "InstitutionAddress": "Oxfordlaan_55_Maastricht_22AAA2_Limburg_NL_6229_EV",
  "InstitutionName": "Scannexus",
  "InstitutionalDepartmentName": "MRI_7T",
  "MRAcquisitionType": "2D",
  "MagneticFieldStrength": 6.98,
  "Manufacturer": "Siemens",
  "ManufacturersModelName": "Investigational_Device_7T",
  "Modality": "MR",
  "MultibandAccelerationFactor": 2,
  "ParallelReductionFactorInPlane": 3,
  "PartialFourier": 0.75,
  "PatientPosition": "HFS",
  "PercentPhaseFOV": 100,
  "PhaseEncodingDirection": "j",
  "PhaseEncodingSteps": 141,
  "PhaseResolution": 1,
  "PixelBandwidth": 1400,
  "ProcedureStepDescription": "FeDem_Faruk",
  "ProtocolName": "cmrr_mbep2d_bold_rest",
  "PulseSequenceDetails": "%CustomerSeq%_cmrr_mbep2d_bold",
  "ReceiveCoilName": "32Ch_Head_7T",
  "ReconMatrixPE": 188,
  "RepetitionTime": 1.5,
  "SAR": 0.0786718,
  "ScanOptions": "PFP_FS",
  "ScanningSequence": "EP",
  "SequenceName": "epfid2d1_188",
  "SequenceVariant": "SK_SS",
  "SeriesDescription": "cmrr_mbep2d_bold_rest",
  "SeriesNumber": 13,
  "ShimSetting": [94, -65, 372, 290, -281, -182, 310, 178],
  "SliceThickness": 1.1,
  "SliceTiming": [0, 0.7825, 0.06, 0.8425, 0.12, 0.905, 0.18, 0.965, 0.2425, 1.025, 0.3025, 1.085, 0.3625, 1.145, 0.4225, 1.205, 0.4825, 1.265, 0.5425, 1.325, 0.6025, 1.385, 0.6625, 1.445, 0.7225, 0, 0.7825, 0.06, 0.8425, 0.12, 0.905, 0.18, 0.965, 0.2425, 1.025, 0.3025, 1.085, 0.3625, 1.145, 0.4225, 1.205, 0.4825, 1.265, 0.5425, 1.325, 0.6025, 1.385, 0.6625, 1.445, 0.7225],
  "SoftwareVersions": "syngo_MR_B17",
  "SpacingBetweenSlices": 1.1,
  "StationName": "MRC18930",
  "TaskName": "rest",
  "TotalReadoutTime": 0.0511141,
  "TxRefAmp": 183.439,
  "dcmmeta_affine": [
    [-1.0913599729537964, 0.0072313896380364895, 0.09804028272628784, 96.76925659179688],
    [-0.09380548447370529, 0.23653864860534668, -1.0699281692504883, 39.212303161621094],
    [0.028115801513195038, 1.0698848962783813, 0.23588554561138153, -113.01439666748047],
    [0.0, 0.0, 0.0, 1.0]
],
  "dcmmeta_reorient_transform": [
    [0.0, -1.0, 0.0, 187.0],
    [1.0, 0.0, 0.0, 0.0],
    [0.0, 0.0, 1.0, 0.0],
    [0.0, 0.0, 0.0, 1.0]
],
  "dcmmeta_shape": [188, 188, 50, 400],
  "dcmmeta_slice_dim": 2,
  "dcmmeta_version": 0.6,
  "global": {
    "const": {
      "AcquisitionMatrix": [188, 0, 0, 188],
      "AngioFlag": "N",
      "BitsAllocated": 16,
      "BitsStored": 12,
      "Columns": 1504,
      "EchoNumbers": 1,
      "EchoTime": 20.0,
      "EchoTrainLength": 1,
      "FlipAngle": 75.0,
      "HighBit": 11,
      "ImageOrientationPatient": [0.99599835868226, 0.08560888452485, 0.02565908012096, 0.00659952052441, 0.21587021305623, -0.9763997631318],
      "ImagePositionPatient": [-820.99463167116, -300.81146845412, 772.53814007711],
      "ImageType": [
        "ORIGINAL",
        "PRIMARY",
        "M",
        "MB",
        "ND",
        "MOSAIC"
],
      "ImagedNucleus": "1H",
      "ImagingFrequency": 297.205659,
      "InPlanePhaseEncodingDirection": "COL",
      "MRAcquisitionType": "2D",
      "MagneticFieldStrength": 6.98,
      "Manufacturer": "SIEMENS",
      "ManufacturerModelName": "Investigational_Device_7T",
      "Modality": "MR",
      "NumberOfAverages": 1.0,
      "NumberOfPhaseEncodingSteps": 141,
      "PercentPhaseFieldOfView": 100.0,
      "PercentSampling": 100.0,
      "PerformedProcedureStepStartTime": "171550.375000",
      "PhotometricInterpretation": "MONOCHROME2",
      "PixelBandwidth": 1400.0,
      "PixelRepresentation": 0,
      "PixelSpacing": [1.0957447290421, 1.0957447290421],
      "ProtocolName": "cmrr_mbep2d_bold_rest",
      "RepetitionTime": 1500.0,
      "Rows": 1504,
      "SAR": 0.07867178828026,
      "SamplesPerPixel": 1,
      "ScanOptions": [
        "PFP",
        "FS"
],
      "ScanningSequence": "EP",
      "SequenceName": "epfid2d1_188",
      "SequenceVariant": [
        "SK",
        "SS"
],
      "SeriesDescription": "cmrr_mbep2d_bold_rest",
      "SeriesNumber": 13,
      "SeriesTime": "180501.468000",
      "SliceLocation": -53.750473535037,
      "SliceThickness": 1.1000000238419,
      "SmallestImagePixelValue": 0,
      "SoftwareVersions": "syngo MR B17",
      "SpacingBetweenSlices": 1.1000000230782,
      "SpecificCharacterSet": "ISO_IR 100",
      "StudyID": "1",
      "StudyTime": "171550.328000",
      "TransmitCoilName": "32Ch_Head_7T",
      "VariableFlipAngleFlag": "N",
      "WindowCenterWidthExplanation": "Algo1",
      "dBdt": 0.0},
    "slices": {}
  },
  "time": {
    "samples": {
      "AcquisitionNumber": [1, 2, 3, 4, 5, 6, 7, 8, 9, 10, 11, 12, 13, 14, 15, 16, 17, 18, 19, 20, 21, 22, 23, 24, 25, 26, 27, 28, 29, 30, 31, 32, 33, 34, 35, 36, 37, 38, 39, 40, 41, 42, 43, 44, 45, 46, 47, 48, 49, 50, 51, 52, 53, 54, 55, 56, 57, 58, 59, 60, 61, 62, 63, 64, 65, 66, 67, 68, 69, 70, 71, 72, 73, 74, 75, 76, 77, 78, 79, 80, 81, 82, 83, 84, 85, 86, 87, 88, 89, 90, 91, 92, 93, 94, 95, 96, 97, 98, 99, 100, 101, 102, 103, 104, 105, 106, 107, 108, 109, 110, 111, 112, 113, 114, 115, 116, 117, 118, 119, 120, 121, 122, 123, 124, 125, 126, 127, 128, 129, 130, 131, 132, 133, 134, 135, 136, 137, 138, 139, 140, 141, 142, 143, 144, 145, 146, 147, 148, 149, 150, 151, 152, 153, 154, 155, 156, 157, 158, 159, 160, 161, 162, 163, 164, 165, 166, 167, 168, 169, 170, 171, 172, 173, 174, 175, 176, 177, 178, 179, 180, 181, 182, 183, 184, 185, 186, 187, 188, 189, 190, 191, 192, 193, 194, 195, 196, 197, 198, 199, 200, 201, 202, 203, 204, 205, 206, 207, 208, 209, 210, 211, 212, 213, 214, 215, 216, 217, 218, 219, 220, 221, 222, 223, 224, 225, 226, 227, 228, 229, 230, 231, 232, 233, 234, 235, 236, 237, 238, 239, 240, 241, 242, 243, 244, 245, 246, 247, 248, 249, 250, 251, 252, 253, 254, 255, 256, 257, 258, 259, 260, 261, 262, 263, 264, 265, 266, 267, 268, 269, 270, 271, 272, 273, 274, 275, 276, 277, 278, 279, 280, 281, 282, 283, 284, 285, 286, 287, 288, 289, 290, 291, 292, 293, 294, 295, 296, 297, 298, 299, 300, 301, 302, 303, 304, 305, 306, 307, 308, 309, 310, 311, 312, 313, 314, 315, 316, 317, 318, 319, 320, 321, 322, 323, 324, 325, 326, 327, 328, 329, 330, 331, 332, 333, 334, 335, 336, 337, 338, 339, 340, 341, 342, 343, 344, 345, 346, 347, 348, 349, 350, 351, 352, 353, 354, 355, 356, 357, 358, 359, 360, 361, 362, 363, 364, 365, 366, 367, 368, 369, 370, 371, 372, 373, 374, 375, 376, 377, 378, 379, 380, 381, 382, 383, 384, 385, 386, 387, 388, 389, 390, 391, 392, 393, 394, 395, 396, 397, 398, 399, 400],
      "AcquisitionTime": ["180451.660000", "180453.167500", "180454.672500", "180456.177500", "180457.685000", "180459.190000", "180500.697500", "180502.202500", "180503.707500", "180505.215000", "180506.720000", "180508.227500", "180509.732500", "180511.240000", "180512.745000", "180514.250000", "180515.757500", "180517.262500", "180518.770000", "180520.275000", "180521.780000", "180523.287500", "180524.792500", "180526.300000", "180527.805000", "180529.310000", "180530.817500", "180532.322500", "180533.830000", "180535.335000", "180536.842500", "180538.347500", "180539.852500", "180541.360000", "180542.865000", "180544.372500", "180545.877500", "180547.382500", "180548.890000", "180550.395000", "180551.902500", "180553.407500", "180554.912500", "180556.420000", "180557.925000", "180559.432500", "180600.937500", "180602.442500", "180603.950000", "180605.455000", "180606.962500", "180608.467500", "180609.975000", "180611.480000", "180612.985000", "180614.492500", "180615.997500", "180617.505000", "180619.010000", "180620.515000", "180622.022500", "180623.527500", "180625.035000", "180626.540000", "180628.045000", "180629.552500", "180631.057500", "180632.565000", "180634.070000", "180635.575000", "180637.082500", "180638.587500", "180640.095000", "180641.600000", "180643.107500", "180644.612500", "180646.117500", "180647.625000", "180649.130000", "180650.637500", "180652.142500", "180653.647500", "180655.155000", "180656.660000", "180658.167500", "180659.672500", "180701.177500", "180702.685000", "180704.190000", "180705.697500", "180707.202500", "180708.707500", "180710.215000", "180711.720000", "180713.227500", "180714.732500", "180716.240000", "180717.745000", "180719.250000", "180720.757500", "180722.262500", "180723.770000", "180725.275000", "180726.780000", "180728.287500", "180729.792500", "180731.300000", "180732.805000", "180734.310000", "180735.817500", "180737.322500", "180738.830000", "180740.335000", "180741.842500", "180743.347500", "180744.852500", "180746.360000", "180747.865000", "180749.372500", "180750.877500", "180752.382500", "180753.890000", "180755.395000", "180756.902500", "180758.407500", "180759.912500", "180801.420000", "180802.925000", "180804.432500", "180805.937500", "180807.442500", "180808.950000", "180810.455000", "180811.962500", "180813.467500", "180814.975000", "180816.480000", "180817.985000", "180819.492500", "180820.997500", "180822.505000", "180824.010000", "180825.515000", "180827.022500", "180828.527500", "180830.035000", "180831.540000", "180833.045000", "180834.552500", "180836.057500", "180837.565000", "180839.070000", "180840.575000", "180842.082500", "180843.587500", "180845.095000", "180846.600000", "180848.107500", "180849.612500", "180851.117500", "180852.625000", "180854.130000", "180855.637500", "180857.142500", "180858.647500", "180900.155000", "180901.660000", "180903.167500", "180904.672500", "180906.177500", "180907.685000", "180909.190000", "180910.697500", "180912.202500", "180913.707500", "180915.215000", "180916.720000", "180918.227500", "180919.732500", "180921.240000", "180922.745000", "180924.250000", "180925.757500", "180927.262500", "180928.770000", "180930.275000", "180931.780000", "180933.287500", "180934.792500", "180936.300000", "180937.805000", "180939.310000", "180940.817500", "180942.322500", "180943.830000", "180945.335000", "180946.842500", "180948.347500", "180949.852500", "180951.360000", "180952.865000", "180954.372500", "180955.877500", "180957.382500", "180958.890000", "181000.395000", "181001.902500", "181003.407500", "181004.912500", "181006.420000", "181007.925000", "181009.432500", "181010.937500", "181012.442500", "181013.950000", "181015.455000", "181016.962500", "181018.467500", "181019.975000", "181021.480000", "181022.985000", "181024.492500", "181025.997500", "181027.505000", "181029.010000", "181030.515000", "181032.022500", "181033.527500", "181035.035000", "181036.540000", "181038.045000", "181039.552500", "181041.057500", "181042.565000", "181044.070000", "181045.575000", "181047.082500", "181048.587500", "181050.095000", "181051.600000", "181053.107500", "181054.612500", "181056.117500", "181057.625000", "181059.130000", "181100.637500", "181102.142500", "181103.647500", "181105.155000", "181106.660000", "181108.167500", "181109.672500", "181111.177500", "181112.685000", "181114.190000", "181115.697500", "181117.202500", "181118.707500", "181120.215000", "181121.720000", "181123.227500", "181124.732500", "181126.240000", "181127.745000", "181129.250000", "181130.757500", "181132.262500", "181133.770000", "181135.275000", "181136.780000", "181138.287500", "181139.792500", "181141.300000", "181142.805000", "181144.310000", "181145.817500", "181147.322500", "181148.830000", "181150.335000", "181151.842500", "181153.347500", "181154.852500", "181156.360000", "181157.865000", "181159.372500", "181200.877500", "181202.382500", "181203.890000", "181205.395000", "181206.902500", "181208.407500", "181209.912500", "181211.420000", "181212.925000", "181214.432500", "181215.937500", "181217.442500", "181218.950000", "181220.455000", "181221.962500", "181223.467500", "181224.975000", "181226.480000", "181227.985000", "181229.492500", "181230.997500", "181232.505000", "181234.010000", "181235.515000", "181237.022500", "181238.527500", "181240.035000", "181241.540000", "181243.045000", "181244.552500", "181246.057500", "181247.565000", "181249.070000", "181250.575000", "181252.082500", "181253.587500", "181255.095000", "181256.600000", "181258.107500", "181259.612500", "181301.117500", "181302.625000", "181304.130000", "181305.637500", "181307.142500", "181308.647500", "181310.155000", "181311.660000", "181313.167500", "181314.672500", "181316.177500", "181317.685000", "181319.190000", "181320.697500", "181322.202500", "181323.707500", "181325.215000", "181326.720000", "181328.227500", "181329.732500", "181331.240000", "181332.745000", "181334.250000", "181335.757500", "181337.262500", "181338.770000", "181340.275000", "181341.780000", "181343.287500", "181344.792500", "181346.300000", "181347.805000", "181349.310000", "181350.817500", "181352.322500", "181353.830000", "181355.335000", "181356.842500", "181358.347500", "181359.852500", "181401.360000", "181402.865000", "181404.372500", "181405.877500", "181407.382500", "181408.890000", "181410.395000", "181411.902500", "181413.407500", "181414.912500", "181416.420000", "181417.925000", "181419.432500", "181420.937500", "181422.442500", "181423.950000", "181425.455000", "181426.962500", "181428.467500", "181429.975000", "181431.480000", "181432.985000", "181434.492500", "181435.997500", "181437.505000", "181439.010000", "181440.515000", "181442.022500", "181443.527500", "181445.035000", "181446.540000", "181448.045000", "181449.552500", "181451.057500", "181452.565000"],
      "ContentTime": ["180501.468000", "180501.968000", "180502.468000", "180502.968000", "180503.468000", "180504.968000", "180505.968000", "180506.968000", "180507.968000", "180508.968000", "180509.968000", "180510.968000", "180512.468000", "180513.968000", "180515.468000", "180516.968000", "180518.468000", "180519.968000", "180521.468000", "180522.968000", "180524.468000", "180525.968000", "180527.468000", "180528.968000", "180530.468000", "180531.968000", "180533.468000", "180534.968000", "180536.468000", "180537.968000", "180539.468000", "180540.968000", "180542.468000", "180543.968000", "180545.468000", "180546.968000", "180548.468000", "180549.968000", "180551.468000", "180552.968000", "180554.468000", "180555.968000", "180557.468000", "180558.968000", "180600.468000", "180601.968000", "180603.468000", "180604.968000", "180606.468000", "180607.968000", "180609.468000", "180610.968000", "180612.468000", "180613.968000", "180615.468000", "180616.968000", "180618.468000", "180619.968000", "180621.468000", "180622.968000", "180624.468000", "180625.968000", "180627.468000", "180628.968000", "180630.468000", "180631.968000", "180633.468000", "180634.968000", "180636.468000", "180637.968000", "180639.468000", "180640.968000", "180642.468000", "180643.968000", "180645.468000", "180646.968000", "180648.468000", "180649.968000", "180651.468000", "180652.968000", "180654.468000", "180655.968000", "180657.468000", "180658.968000", "180700.468000", "180701.968000", "180703.468000", "180704.968000", "180706.468000", "180707.968000", "180709.468000", "180710.968000", "180712.468000", "180713.968000", "180715.468000", "180716.968000", "180718.468000", "180719.968000", "180721.468000", "180722.968000", "180724.468000", "180725.968000", "180727.468000", "180728.968000", "180730.468000", "180731.968000", "180733.468000", "180734.968000", "180736.468000", "180737.968000", "180739.468000", "180740.968000", "180742.468000", "180743.968000", "180745.468000", "180746.968000", "180748.468000", "180749.968000", "180751.468000", "180752.968000", "180754.468000", "180755.968000", "180757.468000", "180758.968000", "180800.468000", "180801.968000", "180803.468000", "180804.968000", "180806.468000", "180807.968000", "180809.468000", "180810.968000", "180812.468000", "180813.968000", "180815.468000", "180816.968000", "180818.468000", "180819.968000", "180821.468000", "180822.968000", "180824.468000", "180825.968000", "180827.468000", "180828.968000", "180830.468000", "180831.968000", "180833.468000", "180834.968000", "180836.468000", "180837.968000", "180839.468000", "180840.968000", "180842.468000", "180843.968000", "180845.468000", "180846.968000", "180848.468000", "180849.968000", "180851.468000", "180852.968000", "180854.468000", "180855.968000", "180857.468000", "180858.968000", "180900.468000", "180901.968000", "180903.468000", "180904.968000", "180906.468000", "180907.968000", "180909.468000", "180910.968000", "180912.468000", "180913.968000", "180915.468000", "180916.968000", "180918.468000", "180919.968000", "180921.468000", "180922.968000", "180924.468000", "180925.968000", "180927.468000", "180928.968000", "180930.468000", "180931.968000", "180933.468000", "180934.968000", "180936.468000", "180937.968000", "180939.468000", "180940.968000", "180942.468000", "180943.968000", "180945.468000", "180946.968000", "180948.468000", "180949.968000", "180951.468000", "180952.968000", "180954.468000", "180955.968000", "180957.468000", "180958.968000", "181000.468000", "181001.968000", "181003.468000", "181004.968000", "181006.468000", "181007.968000", "181009.468000", "181010.968000", "181012.468000", "181013.968000", "181015.468000", "181016.968000", "181018.468000", "181019.968000", "181021.468000", "181022.968000", "181024.468000", "181025.968000", "181027.468000", "181028.968000", "181030.468000", "181031.968000", "181033.468000", "181034.968000", "181036.468000", "181037.968000", "181039.468000", "181040.968000", "181042.468000", "181043.968000", "181045.468000", "181046.968000", "181048.468000", "181049.968000", "181051.468000", "181052.968000", "181054.468000", "181055.968000", "181057.468000", "181058.968000", "181100.468000", "181101.968000", "181103.468000", "181104.968000", "181106.468000", "181107.968000", "181109.468000", "181110.968000", "181112.468000", "181113.968000", "181115.468000", "181116.968000", "181118.468000", "181119.968000", "181121.468000", "181122.968000", "181124.468000", "181125.968000", "181127.468000", "181128.968000", "181130.468000", "181131.968000", "181133.468000", "181134.968000", "181136.468000", "181137.968000", "181139.468000", "181140.968000", "181142.468000", "181143.968000", "181145.468000", "181146.968000", "181148.468000", "181149.968000", "181151.468000", "181152.968000", "181154.468000", "181155.968000", "181157.468000", "181158.968000", "181200.468000", "181201.968000", "181203.468000", "181204.968000", "181206.468000", "181207.968000", "181209.468000", "181210.968000", "181212.468000", "181213.968000", "181215.468000", "181216.968000", "181218.468000", "181219.968000", "181221.468000", "181222.968000", "181224.468000", "181225.968000", "181227.468000", "181228.968000", "181230.468000", "181231.968000", "181233.468000", "181234.968000", "181236.468000", "181237.968000", "181239.468000", "181240.968000", "181242.468000", "181243.968000", "181245.468000", "181246.968000", "181248.468000", "181249.968000", "181251.468000", "181252.968000", "181254.468000", "181255.968000", "181257.468000", "181258.968000", "181300.468000", "181301.968000", "181303.468000", "181304.968000", "181306.468000", "181307.968000", "181309.468000", "181310.968000", "181312.468000", "181313.968000", "181315.468000", "181316.968000", "181318.468000", "181319.968000", "181321.468000", "181322.968000", "181324.468000", "181325.968000", "181327.468000", "181328.968000", "181330.468000", "181331.968000", "181333.468000", "181334.968000", "181336.468000", "181337.968000", "181339.468000", "181340.968000", "181342.468000", "181343.968000", "181345.468000", "181346.968000", "181348.468000", "181349.968000", "181351.468000", "181352.968000", "181354.468000", "181355.968000", "181357.468000", "181358.968000", "181400.468000", "181401.968000", "181403.468000", "181404.968000", "181406.468000", "181407.968000", "181409.468000", "181410.968000", "181412.468000", "181413.968000", "181415.468000", "181416.968000", "181418.468000", "181419.968000", "181421.468000", "181422.968000", "181424.468000", "181425.968000", "181427.468000", "181428.968000", "181430.468000", "181431.968000", "181433.468000", "181434.968000", "181436.468000", "181437.968000", "181439.468000", "181440.968000", "181442.468000", "181443.968000", "181445.468000", "181446.968000", "181448.468000", "181449.968000", "181451.468000", "181452.812000"],
      "InstanceCreationTime": ["180501.468000", "180501.968000", "180502.468000", "180502.968000", "180503.468000", "180504.968000", "180505.968000", "180506.968000", "180507.968000", "180508.968000", "180509.968000", "180510.968000", "180512.468000", "180513.968000", "180515.468000", "180516.968000", "180518.468000", "180519.968000", "180521.468000", "180522.968000", "180524.468000", "180525.968000", "180527.468000", "180528.968000", "180530.468000", "180531.968000", "180533.468000", "180534.968000", "180536.468000", "180537.968000", "180539.468000", "180540.968000", "180542.468000", "180543.968000", "180545.468000", "180546.968000", "180548.468000", "180549.968000", "180551.468000", "180552.968000", "180554.468000", "180555.968000", "180557.468000", "180558.968000", "180600.468000", "180601.968000", "180603.468000", "180604.968000", "180606.468000", "180607.968000", "180609.468000", "180610.968000", "180612.468000", "180613.968000", "180615.468000", "180616.968000", "180618.468000", "180619.968000", "180621.468000", "180622.968000", "180624.468000", "180625.968000", "180627.468000", "180628.968000", "180630.468000", "180631.968000", "180633.468000", "180634.968000", "180636.468000", "180637.968000", "180639.468000", "180640.968000", "180642.468000", "180643.968000", "180645.468000", "180646.968000", "180648.468000", "180649.968000", "180651.468000", "180652.968000", "180654.468000", "180655.968000", "180657.468000", "180658.968000", "180700.468000", "180701.968000", "180703.468000", "180704.968000", "180706.468000", "180707.968000", "180709.468000", "180710.968000", "180712.468000", "180713.968000", "180715.468000", "180716.968000", "180718.468000", "180719.968000", "180721.468000", "180722.968000", "180724.468000", "180725.968000", "180727.468000", "180728.968000", "180730.468000", "180731.968000", "180733.468000", "180734.968000", "180736.468000", "180737.968000", "180739.468000", "180740.968000", "180742.468000", "180743.968000", "180745.468000", "180746.968000", "180748.468000", "180749.968000", "180751.468000", "180752.968000", "180754.468000", "180755.968000", "180757.468000", "180758.968000", "180800.468000", "180801.968000", "180803.468000", "180804.968000", "180806.468000", "180807.968000", "180809.468000", "180810.968000", "180812.468000", "180813.968000", "180815.468000", "180816.968000", "180818.468000", "180819.968000", "180821.468000", "180822.968000", "180824.468000", "180825.968000", "180827.468000", "180828.968000", "180830.468000", "180831.968000", "180833.468000", "180834.968000", "180836.468000", "180837.968000", "180839.468000", "180840.968000", "180842.468000", "180843.968000", "180845.468000", "180846.968000", "180848.468000", "180849.968000", "180851.468000", "180852.968000", "180854.468000", "180855.968000", "180857.468000", "180858.968000", "180900.468000", "180901.968000", "180903.468000", "180904.968000", "180906.468000", "180907.968000", "180909.468000", "180910.968000", "180912.468000", "180913.968000", "180915.468000", "180916.968000", "180918.468000", "180919.968000", "180921.468000", "180922.968000", "180924.468000", "180925.968000", "180927.468000", "180928.968000", "180930.468000", "180931.968000", "180933.468000", "180934.968000", "180936.468000", "180937.968000", "180939.468000", "180940.968000", "180942.468000", "180943.968000", "180945.468000", "180946.968000", "180948.468000", "180949.968000", "180951.468000", "180952.968000", "180954.468000", "180955.968000", "180957.468000", "180958.968000", "181000.468000", "181001.968000", "181003.468000", "181004.968000", "181006.468000", "181007.968000", "181009.468000", "181010.968000", "181012.468000", "181013.968000", "181015.468000", "181016.968000", "181018.468000", "181019.968000", "181021.468000", "181022.968000", "181024.468000", "181025.968000", "181027.468000", "181028.968000", "181030.468000", "181031.968000", "181033.468000", "181034.968000", "181036.468000", "181037.968000", "181039.468000", "181040.968000", "181042.468000", "181043.968000", "181045.468000", "181046.968000", "181048.468000", "181049.968000", "181051.468000", "181052.968000", "181054.468000", "181055.968000", "181057.468000", "181058.968000", "181100.468000", "181101.968000", "181103.468000", "181104.968000", "181106.468000", "181107.968000", "181109.468000", "181110.968000", "181112.468000", "181113.968000", "181115.468000", "181116.968000", "181118.468000", "181119.968000", "181121.468000", "181122.968000", "181124.468000", "181125.968000", "181127.468000", "181128.968000", "181130.468000", "181131.968000", "181133.468000", "181134.968000", "181136.468000", "181137.968000", "181139.468000", "181140.968000", "181142.468000", "181143.968000", "181145.468000", "181146.968000", "181148.468000", "181149.968000", "181151.468000", "181152.968000", "181154.468000", "181155.968000", "181157.468000", "181158.968000", "181200.468000", "181201.968000", "181203.468000", "181204.968000", "181206.468000", "181207.968000", "181209.468000", "181210.968000", "181212.468000", "181213.968000", "181215.468000", "181216.968000", "181218.468000", "181219.968000", "181221.468000", "181222.968000", "181224.468000", "181225.968000", "181227.468000", "181228.968000", "181230.468000", "181231.968000", "181233.468000", "181234.968000", "181236.468000", "181237.968000", "181239.468000", "181240.968000", "181242.468000", "181243.968000", "181245.468000", "181246.968000", "181248.468000", "181249.968000", "181251.468000", "181252.968000", "181254.468000", "181255.968000", "181257.468000", "181258.968000", "181300.468000", "181301.968000", "181303.468000", "181304.968000", "181306.468000", "181307.968000", "181309.468000", "181310.968000", "181312.468000", "181313.968000", "181315.468000", "181316.968000", "181318.468000", "181319.968000", "181321.468000", "181322.968000", "181324.468000", "181325.968000", "181327.468000", "181328.968000", "181330.468000", "181331.968000", "181333.468000", "181334.968000", "181336.468000", "181337.968000", "181339.468000", "181340.968000", "181342.468000", "181343.968000", "181345.468000", "181346.968000", "181348.468000", "181349.968000", "181351.468000", "181352.968000", "181354.468000", "181355.968000", "181357.468000", "181358.968000", "181400.468000", "181401.968000", "181403.468000", "181404.968000", "181406.468000", "181407.968000", "181409.468000", "181410.968000", "181412.468000", "181413.968000", "181415.468000", "181416.968000", "181418.468000", "181419.968000", "181421.468000", "181422.968000", "181424.468000", "181425.968000", "181427.468000", "181428.968000", "181430.468000", "181431.968000", "181433.468000", "181434.968000", "181436.468000", "181437.968000", "181439.468000", "181440.968000", "181442.468000", "181443.968000", "181445.468000", "181446.968000", "181448.468000", "181449.968000", "181451.468000", "181452.812000"],
      "InstanceNumber": [1, 2, 3, 4, 5, 6, 7, 8, 9, 10, 11, 12, 13, 14, 15, 16, 17, 18, 19, 20, 21, 22, 23, 24, 25, 26, 27, 28, 29, 30, 31, 32, 33, 34, 35, 36, 37, 38, 39, 40, 41, 42, 43, 44, 45, 46, 47, 48, 49, 50, 51, 52, 53, 54, 55, 56, 57, 58, 59, 60, 61, 62, 63, 64, 65, 66, 67, 68, 69, 70, 71, 72, 73, 74, 75, 76, 77, 78, 79, 80, 81, 82, 83, 84, 85, 86, 87, 88, 89, 90, 91, 92, 93, 94, 95, 96, 97, 98, 99, 100, 101, 102, 103, 104, 105, 106, 107, 108, 109, 110, 111, 112, 113, 114, 115, 116, 117, 118, 119, 120, 121, 122, 123, 124, 125, 126, 127, 128, 129, 130, 131, 132, 133, 134, 135, 136, 137, 138, 139, 140, 141, 142, 143, 144, 145, 146, 147, 148, 149, 150, 151, 152, 153, 154, 155, 156, 157, 158, 159, 160, 161, 162, 163, 164, 165, 166, 167, 168, 169, 170, 171, 172, 173, 174, 175, 176, 177, 178, 179, 180, 181, 182, 183, 184, 185, 186, 187, 188, 189, 190, 191, 192, 193, 194, 195, 196, 197, 198, 199, 200, 201, 202, 203, 204, 205, 206, 207, 208, 209, 210, 211, 212, 213, 214, 215, 216, 217, 218, 219, 220, 221, 222, 223, 224, 225, 226, 227, 228, 229, 230, 231, 232, 233, 234, 235, 236, 237, 238, 239, 240, 241, 242, 243, 244, 245, 246, 247, 248, 249, 250, 251, 252, 253, 254, 255, 256, 257, 258, 259, 260, 261, 262, 263, 264, 265, 266, 267, 268, 269, 270, 271, 272, 273, 274, 275, 276, 277, 278, 279, 280, 281, 282, 283, 284, 285, 286, 287, 288, 289, 290, 291, 292, 293, 294, 295, 296, 297, 298, 299, 300, 301, 302, 303, 304, 305, 306, 307, 308, 309, 310, 311, 312, 313, 314, 315, 316, 317, 318, 319, 320, 321, 322, 323, 324, 325, 326, 327, 328, 329, 330, 331, 332, 333, 334, 335, 336, 337, 338, 339, 340, 341, 342, 343, 344, 345, 346, 347, 348, 349, 350, 351, 352, 353, 354, 355, 356, 357, 358, 359, 360, 361, 362, 363, 364, 365, 366, 367, 368, 369, 370, 371, 372, 373, 374, 375, 376, 377, 378, 379, 380, 381, 382, 383, 384, 385, 386, 387, 388, 389, 390, 391, 392, 393, 394, 395, 396, 397, 398, 399, 400],
