{
  "AcquisitionMatrixPE": 188,
  "AcquisitionNumber": 1,
  "AcquisitionTime": "15:22:6.147500",
  "BandwidthPerPixelPhaseEncode": 19.46,
  "BaseResolution": 188,
  "ConversionSoftware": "dcm2niix",
  "ConversionSoftwareVersion": "v1.0.20180606 GCC4.8.5",
  "DelayTime": 1.2,
  "DerivedVendorReportedEchoSpacing": 0.000820013,
  "DeviceSerialNumber": "18930",
  "DwellTime": 1.9e-06,
  "EchoTime": 0.02,
  "EffectiveEchoSpacing": 0.000273338,
  "FlipAngle": 80,
  "ImageComments": "Unaliased_MB2_PE2",
  "ImageOrientationPatientDICOM": [0.997146, 0.0655968, -0.0373852, -0.0554599, 0.300366, -0.95221],
  "ImageType": [
    "ORIGINAL",
    "PRIMARY",
    "M",
    "MB",
    "ND",
    "MOSAIC"
],
  "InPlanePhaseEncodingDirectionDICOM": "COL",
  "InstitutionAddress": "Oxfordlaan_55_Maastricht_Limburg_NL_6229_EV",
  "InstitutionName": "Scannexus",
  "InstitutionalDepartmentName": "MRI_7T",
  "MRAcquisitionType": "2D",
  "MagneticFieldStrength": 6.98,
  "Manufacturer": "Siemens",
  "ManufacturersModelName": "Investigational_Device_7T",
  "Modality": "MR",
  "MultibandAccelerationFactor": 2,
  "ParallelReductionFactorInPlane": 3,
  "PartialFourier": 0.75,
  "PatientPosition": "HFS",
  "PercentPhaseFOV": 100,
  "PhaseEncodingDirection": "j",
  "PhaseEncodingSteps": 141,
  "PhaseResolution": 1,
  "PixelBandwidth": 1400,
  "ProcedureStepDescription": "FeDem_Faruk",
  "ProtocolName": "cmrr_mbep2d_bold_AP_run4",
  "PulseSequenceDetails": "%CustomerSeq%_cmrr_mbep2d_bold",
  "ReceiveCoilName": "32Ch_Head_7T",
  "ReconMatrixPE": 188,
  "RepetitionTime": 2.6,
  "SAR": 0.0633325,
  "ScanOptions": "PFP_FS",
  "ScanningSequence": "EP",
  "SequenceName": "epfid2d1_188",
  "SequenceVariant": "SK_SS",
  "SeriesDescription": "cmrr_mbep2d_bold_AP_run4",
  "SeriesNumber": 13,
  "ShimSetting": [70, -194, 546, 562, -84, -161, 15, 129],
  "SliceThickness": 1.1,
  "SliceTiming": [0, 0.7325, 0.06, 0.7925, 0.12, 0.855, 0.1825, 0.915, 0.2425, 0.9775, 0.305, 1.0375, 0.365, 1.1, 0.4275, 1.16, 0.4875, 1.22, 0.55, 1.2825, 0.61, 1.3425, 0.67, 0, 0.7325, 0.06, 0.7925, 0.12, 0.855, 0.1825, 0.915, 0.2425, 0.9775, 0.305, 1.0375, 0.365, 1.1, 0.4275, 1.16, 0.4875, 1.22, 0.55, 1.2825, 0.61, 1.3425, 0.67],
  "SoftwareVersions": "syngo_MR_B17",
  "SpacingBetweenSlices": 1.1,
  "StationName": "MRC18930",
  "TaskName": "auditory",
  "TotalReadoutTime": 0.0511141,
  "TxRefAmp": 250,
  "dcmmeta_affine": [
    [-1.0926170349121094, -0.06076992675662041, 0.05635593459010124, 105.78306579589844],
    [-0.07187733054161072, 0.3291241228580475, -1.0467216968536377, 13.95902156829834],
    [-0.04096466675400734, 1.043379545211792, 0.3334607481956482, -109.1678466796875],
    [0.0, 0.0, 0.0, 1.0]
],
  "dcmmeta_reorient_transform": [
    [0.0, -1.0, 0.0, 187.0],
    [1.0, 0.0, 0.0, 0.0],
    [0.0, 0.0, 1.0, 0.0],
    [0.0, 0.0, 0.0, 1.0]
],
  "dcmmeta_shape": [188, 188, 46, 220],
  "dcmmeta_slice_dim": 2,
  "dcmmeta_version": 0.6,
  "global": {
    "const": {
      "AcquisitionMatrix": [188, 0, 0, 188],
      "AngioFlag": "N",
      "BitsAllocated": 16,
      "BitsStored": 12,
      "Columns": 1316,
      "EchoNumbers": 1,
      "EchoTime": 20.0,
      "EchoTrainLength": 1,
      "FlipAngle": 80.0,
      "HighBit": 11,
      "ImageOrientationPatient": [0.99714562963932, 0.06559678296431, -0.0373852291144, -0.0554599301747, 0.30036568996081, -0.9522104013501],
      "ImagePositionPatient": [-676.38087808259, -301.67005077497, 697.51424994947],
      "ImageType": [
        "ORIGINAL",
        "PRIMARY",
        "M",
        "MB",
        "ND",
        "MOSAIC"
],
      "ImagedNucleus": "1H",
      "ImagingFrequency": 297.205422,
      "InPlanePhaseEncodingDirection": "COL",
      "LargestImagePixelValue": 4095,
      "MRAcquisitionType": "2D",
      "MagneticFieldStrength": 6.98,
      "Manufacturer": "SIEMENS",
      "ManufacturerModelName": "Investigational_Device_7T",
      "Modality": "MR",
      "NumberOfAverages": 1.0,
      "NumberOfPhaseEncodingSteps": 141,
      "PercentPhaseFieldOfView": 100.0,
      "PercentSampling": 100.0,
      "PerformedProcedureStepStartTime": "141500.968000",
      "PhotometricInterpretation": "MONOCHROME2",
      "PixelBandwidth": 1400.0,
      "PixelRepresentation": 0,
      "PixelSpacing": [1.0957447290421, 1.0957447290421],
      "ProtocolName": "cmrr_mbep2d_bold_AP_run4",
      "RepetitionTime": 2600.0,
      "Rows": 1316,
      "SAR": 0.06333245820898,
      "SamplesPerPixel": 1,
      "ScanOptions": [
        "PFP",
        "FS"
],
      "ScanningSequence": "EP",
      "SequenceName": "epfid2d1_188",
      "SequenceVariant": [
        "SK",
        "SS"
],
      "SeriesDescription": "cmrr_mbep2d_bold_AP_run4",
      "SeriesNumber": 13,
      "SeriesTime": "152310.359000",
      "SliceLocation": -40.957208464512,
      "SliceThickness": 1.1000000238419,
      "SmallestImagePixelValue": 0,
      "SoftwareVersions": "syngo MR B17",
      "SpacingBetweenSlices": 1.0999993098325,
      "SpecificCharacterSet": "ISO_IR 100",
      "StudyID": "1",
      "StudyTime": "141500.890000",
      "TransmitCoilName": "32Ch_Head_7T",
      "VariableFlipAngleFlag": "N",
      "WindowCenterWidthExplanation": "Algo1",
      "dBdt": 0.0},
    "slices": {}
  },
  "time": {
    "samples": {
      "AcquisitionNumber": [1, 2, 3, 4, 5, 6, 7, 8, 9, 10, 11, 12, 13, 14, 15, 16, 17, 18, 19, 20, 21, 22, 23, 24, 25, 26, 27, 28, 29, 30, 31, 32, 33, 34, 35, 36, 37, 38, 39, 40, 41, 42, 43, 44, 45, 46, 47, 48, 49, 50, 51, 52, 53, 54, 55, 56, 57, 58, 59, 60, 61, 62, 63, 64, 65, 66, 67, 68, 69, 70, 71, 72, 73, 74, 75, 76, 77, 78, 79, 80, 81, 82, 83, 84, 85, 86, 87, 88, 89, 90, 91, 92, 93, 94, 95, 96, 97, 98, 99, 100, 101, 102, 103, 104, 105, 106, 107, 108, 109, 110, 111, 112, 113, 114, 115, 116, 117, 118, 119, 120, 121, 122, 123, 124, 125, 126, 127, 128, 129, 130, 131, 132, 133, 134, 135, 136, 137, 138, 139, 140, 141, 142, 143, 144, 145, 146, 147, 148, 149, 150, 151, 152, 153, 154, 155, 156, 157, 158, 159, 160, 161, 162, 163, 164, 165, 166, 167, 168, 169, 170, 171, 172, 173, 174, 175, 176, 177, 178, 179, 180, 181, 182, 183, 184, 185, 186, 187, 188, 189, 190, 191, 192, 193, 194, 195, 196, 197, 198, 199, 200, 201, 202, 203, 204, 205, 206, 207, 208, 209, 210, 211, 212, 213, 214, 215, 216, 217, 218, 219, 220],
      "AcquisitionTime": ["152206.147500", "152208.757500", "152211.367500", "152213.977500", "152216.587500", "152219.197500", "152221.810000", "152224.420000", "152227.030000", "152229.640000", "152232.250000", "152234.862500", "152237.472500", "152240.082500", "152242.692500", "152245.302500", "152247.912500", "152250.525000", "152253.135000", "152255.745000", "152258.355000", "152300.965000", "152303.575000", "152306.187500", "152308.797500", "152311.407500", "152314.017500", "152316.627500", "152319.240000", "152321.850000", "152324.460000", "152327.070000", "152329.680000", "152332.290000", "152334.902500", "152337.512500", "152340.122500", "152342.732500", "152345.342500", "152347.952500", "152350.565000", "152353.175000", "152355.785000", "152358.395000", "152401.005000", "152403.617500", "152406.227500", "152408.837500", "152411.447500", "152414.057500", "152416.667500", "152419.280000", "152421.890000", "152424.500000", "152427.110000", "152429.720000", "152432.330000", "152434.942500", "152437.552500", "152440.162500", "152442.772500", "152445.382500", "152447.995000", "152450.605000", "152453.215000", "152455.825000", "152458.435000", "152501.045000", "152503.657500", "152506.267500", "152508.877500", "152511.487500", "152514.097500", "152516.707500", "152519.320000", "152521.930000", "152524.540000", "152527.150000", "152529.760000", "152532.372500", "152534.982500", "152537.592500", "152540.202500", "152542.812500", "152545.422500", "152548.035000", "152550.645000", "152553.255000", "152555.865000", "152558.475000", "152601.087500", "152603.697500", "152606.307500", "152608.917500", "152611.527500", "152614.137500", "152616.750000", "152619.360000", "152621.970000", "152624.580000", "152627.190000", "152629.800000", "152632.412500", "152635.022500", "152637.632500", "152640.242500", "152642.852500", "152645.465000", "152648.075000", "152650.685000", "152653.295000", "152655.905000", "152658.515000", "152701.127500", "152703.737500", "152706.347500", "152708.957500", "152711.567500", "152714.177500", "152716.790000", "152719.400000", "152722.010000", "152724.620000", "152727.230000", "152729.842500", "152732.452500", "152735.062500", "152737.672500", "152740.282500", "152742.892500", "152745.505000", "152748.115000", "152750.725000", "152753.335000", "152755.945000", "152758.555000", "152801.167500", "152803.777500", "152806.387500", "152808.997500", "152811.607500", "152814.220000", "152816.830000", "152819.440000", "152822.050000", "152824.660000", "152827.270000", "152829.882500", "152832.492500", "152835.102500", "152837.712500", "152840.322500", "152842.932500", "152845.545000", "152848.155000", "152850.765000", "152853.375000", "152855.985000", "152858.597500", "152901.207500", "152903.817500", "152906.427500", "152909.037500", "152911.647500", "152914.260000", "152916.870000", "152919.480000", "152922.090000", "152924.700000", "152927.310000", "152929.922500", "152932.532500", "152935.142500", "152937.752500", "152940.362500", "152942.975000", "152945.585000", "152948.195000", "152950.805000", "152953.415000", "152956.025000", "152958.637500", "153001.247500", "153003.857500", "153006.467500", "153009.077500", "153011.687500", "153014.300000", "153016.910000", "153019.520000", "153022.130000", "153024.740000", "153027.352500", "153029.962500", "153032.572500", "153035.182500", "153037.792500", "153040.402500", "153043.015000", "153045.625000", "153048.235000", "153050.845000", "153053.455000", "153056.065000", "153058.677500", "153101.287500", "153103.897500", "153106.507500", "153109.117500", "153111.730000", "153114.340000", "153116.950000", "153119.560000", "153122.170000", "153124.780000", "153127.392500", "153130.002500", "153132.612500", "153135.222500", "153137.832500"],
      "ContentTime": ["152310.359000", "152310.359000", "152310.359000", "152310.359000", "152310.375000", "152310.375000", "152310.375000", "152310.375000", "152310.375000", "152310.375000", "152310.375000", "152310.375000", "152310.390000", "152310.390000", "152310.390000", "152310.390000", "152310.390000", "152310.390000", "152310.406000", "152310.406000", "152310.406000", "152310.406000", "152310.406000", "152310.406000", "152410.359000", "152410.359000", "152410.359000", "152410.359000", "152410.359000", "152410.359000", "152410.375000", "152410.375000", "152410.375000", "152410.375000", "152410.375000", "152410.375000", "152410.390000", "152410.390000", "152410.390000", "152410.390000", "152410.390000", "152410.390000", "152410.390000", "152410.406000", "152410.406000", "152410.406000", "152410.406000", "152510.359000", "152510.359000", "152510.359000", "152510.359000", "152510.359000", "152510.375000", "152510.375000", "152510.375000", "152510.375000", "152510.375000", "152510.375000", "152510.375000", "152510.375000", "152510.390000", "152510.390000", "152510.390000", "152510.390000", "152510.390000", "152510.390000", "152510.390000", "152510.406000", "152510.406000", "152510.406000", "152610.359000", "152610.359000", "152610.359000", "152610.359000", "152610.359000", "152610.359000", "152610.359000", "152610.359000", "152610.375000", "152610.375000", "152610.375000", "152610.375000", "152610.375000", "152610.375000", "152610.390000", "152610.390000", "152610.390000", "152610.390000", "152610.406000", "152610.406000", "152610.406000", "152610.406000", "152610.406000", "152630.359000", "152630.359000", "152630.359000", "152630.359000", "152630.359000", "152630.375000", "152630.375000", "152730.359000", "152730.359000", "152730.359000", "152730.359000", "152730.359000", "152730.359000", "152730.359000", "152730.375000", "152730.375000", "152730.375000", "152730.375000", "152730.375000", "152730.375000", "152730.375000", "152730.375000", "152730.390000", "152730.390000", "152730.390000", "152730.390000", "152730.390000", "152730.390000", "152730.406000", "152730.406000", "152730.406000", "152830.359000", "152830.359000", "152830.359000", "152830.359000", "152830.359000", "152830.375000", "152830.375000", "152830.375000", "152830.375000", "152830.375000", "152830.375000", "152830.375000", "152830.375000", "152830.390000", "152830.390000", "152830.390000", "152830.390000", "152830.390000", "152830.390000", "152830.390000", "152830.406000", "152830.406000", "152830.406000", "152930.359000", "152930.359000", "152930.359000", "152930.359000", "152930.359000", "152930.359000", "152930.359000", "152930.359000", "152930.375000", "152930.375000", "152930.375000", "152930.375000", "152930.375000", "152930.375000", "152930.375000", "152930.390000", "152930.390000", "152930.390000", "152930.390000", "152930.406000", "152930.406000", "152930.406000", "152930.406000", "153030.359000", "153030.359000", "153030.359000", "153030.359000", "153030.359000", "153030.375000", "153030.390000", "153030.390000", "153030.390000", "153030.390000", "153030.390000", "153030.390000", "153030.390000", "153030.390000", "153030.406000", "153030.406000", "153030.406000", "153030.406000", "153030.406000", "153030.406000", "153030.406000", "153030.406000", "153030.421000", "153130.359000", "153130.359000", "153130.359000", "153130.359000", "153130.375000", "153130.375000", "153130.375000", "153130.375000", "153130.375000", "153130.375000", "153130.390000", "153130.390000", "153130.390000", "153130.390000", "153130.390000", "153130.390000", "153130.390000", "153130.390000", "153130.406000", "153130.406000", "153130.406000", "153130.406000", "153130.406000", "153144.875000", "153144.875000", "153144.875000", "153144.875000"],
      "InstanceCreationTime": ["152310.359000", "152310.359000", "152310.359000", "152310.359000", "152310.375000", "152310.375000", "152310.375000", "152310.375000", "152310.375000", "152310.375000", "152310.375000", "152310.375000", "152310.390000", "152310.390000", "152310.390000", "152310.390000", "152310.390000", "152310.390000", "152310.406000", "152310.406000", "152310.406000", "152310.406000", "152310.406000", "152310.406000", "152410.359000", "152410.359000", "152410.359000", "152410.359000", "152410.359000", "152410.359000", "152410.375000", "152410.375000", "152410.375000", "152410.375000", "152410.375000", "152410.375000", "152410.390000", "152410.390000", "152410.390000", "152410.390000", "152410.390000", "152410.390000", "152410.390000", "152410.406000", "152410.406000", "152410.406000", "152410.406000", "152510.359000", "152510.359000", "152510.359000", "152510.359000", "152510.359000", "152510.375000", "152510.375000", "152510.375000", "152510.375000", "152510.375000", "152510.375000", "152510.375000", "152510.375000", "152510.390000", "152510.390000", "152510.390000", "152510.390000", "152510.390000", "152510.390000", "152510.390000", "152510.406000", "152510.406000", "152510.406000", "152610.359000", "152610.359000", "152610.359000", "152610.359000", "152610.359000", "152610.359000", "152610.359000", "152610.359000", "152610.375000", "152610.375000", "152610.375000", "152610.375000", "152610.375000", "152610.375000", "152610.390000", "152610.390000", "152610.390000", "152610.390000", "152610.406000", "152610.406000", "152610.406000", "152610.406000", "152610.406000", "152630.359000", "152630.359000", "152630.359000", "152630.359000", "152630.359000", "152630.375000", "152630.375000", "152730.359000", "152730.359000", "152730.359000", "152730.359000", "152730.359000", "152730.359000", "152730.359000", "152730.375000", "152730.375000", "152730.375000", "152730.375000", "152730.375000", "152730.375000", "152730.375000", "152730.375000", "152730.390000", "152730.390000", "152730.390000", "152730.390000", "152730.390000", "152730.390000", "152730.406000", "152730.406000", "152730.406000", "152830.359000", "152830.359000", "152830.359000", "152830.359000", "152830.359000", "152830.375000", "152830.375000", "152830.375000", "152830.375000", "152830.375000", "152830.375000", "152830.375000", "152830.375000", "152830.390000", "152830.390000", "152830.390000", "152830.390000", "152830.390000", "152830.390000", "152830.390000", "152830.406000", "152830.406000", "152830.406000", "152930.359000", "152930.359000", "152930.359000", "152930.359000", "152930.359000", "152930.359000", "152930.359000", "152930.359000", "152930.375000", "152930.375000", "152930.375000", "152930.375000", "152930.375000", "152930.375000", "152930.375000", "152930.390000", "152930.390000", "152930.390000", "152930.390000", "152930.406000", "152930.406000", "152930.406000", "152930.406000", "153030.359000", "153030.359000", "153030.359000", "153030.359000", "153030.359000", "153030.375000", "153030.390000", "153030.390000", "153030.390000", "153030.390000", "153030.390000", "153030.390000", "153030.390000", "153030.390000", "153030.406000", "153030.406000", "153030.406000", "153030.406000", "153030.406000", "153030.406000", "153030.406000", "153030.406000", "153030.421000", "153130.359000", "153130.359000", "153130.359000", "153130.359000", "153130.375000", "153130.375000", "153130.375000", "153130.375000", "153130.375000", "153130.375000", "153130.390000", "153130.390000", "153130.390000", "153130.390000", "153130.390000", "153130.390000", "153130.390000", "153130.390000", "153130.406000", "153130.406000", "153130.406000", "153130.406000", "153130.406000", "153144.875000", "153144.875000", "153144.875000", "153144.875000"],
      "InstanceNumber": [1, 2, 3, 4, 5, 6, 7, 8, 9, 10, 11, 12, 13, 14, 15, 16, 17, 18, 19, 20, 21, 22, 23, 24, 25, 26, 27, 28, 29, 30, 31, 32, 33, 34, 35, 36, 37, 38, 39, 40, 41, 42, 43, 44, 45, 46, 47, 48, 49, 50, 51, 52, 53, 54, 55, 56, 57, 58, 59, 60, 61, 62, 63, 64, 65, 66, 67, 68, 69, 70, 71, 72, 73, 74, 75, 76, 77, 78, 79, 80, 81, 82, 83, 84, 85, 86, 87, 88, 89, 90, 91, 92, 93, 94, 95, 96, 97, 98, 99, 100, 101, 102, 103, 104, 105, 106, 107, 108, 109, 110, 111, 112, 113, 114, 115, 116, 117, 118, 119, 120, 121, 122, 123, 124, 125, 126, 127, 128, 129, 130, 131, 132, 133, 134, 135, 136, 137, 138, 139, 140, 141, 142, 143, 144, 145, 146, 147, 148, 149, 150, 151, 152, 153, 154, 155, 156, 157, 158, 159, 160, 161, 162, 163, 164, 165, 166, 167, 168, 169, 170, 171, 172, 173, 174, 175, 176, 177, 178, 179, 180, 181, 182, 183, 184, 185, 186, 187, 188, 189, 190, 191, 192, 193, 194, 195, 196, 197, 198, 199, 200, 201, 202, 203, 204, 205, 206, 207, 208, 209, 210, 211, 212, 213, 214, 215, 216, 217, 218, 219, 220],
      "WindowCenter": [979.0, 977.0, 978.0, 977.0, 978.0, 978.0, 978.0, 981.0, 979.0, 976.0, 977.0, 974.0, 971.0, 972.0, 972.0, 973.0, 976.0, 978.0, 977.0, 978.0, 977.0, 977.0, 976.0, 976.0, 977.0, 975.0, 975.0, 976.0, 974.0, 973.0, 975.0, 974.0, 976.0, 979.0, 977.0, 975.0, 977.0, 978.0, 975.0, 975.0, 976.0, 975.0, 975.0, 979.0, 978.0, 975.0, 976.0, 973.0, 972.0, 975.0, 974.0, 976.0, 979.0, 979.0, 975.0, 975.0, 975.0, 975.0, 976.0, 974.0, 975.0, 972.0, 974.0, 976.0, 979.0, 977.0, 975.0, 975.0, 976.0, 973.0, 972.0, 977.0, 975.0, 976.0, 977.0, 979.0, 978.0, 975.0, 975.0, 976.0, 977.0, 977.0, 975.0, 977.0, 977.0, 976.0, 976.0, 978.0, 976.0, 974.0, 976.0, 975.0, 974.0, 976.0, 978.0, 979.0, 979.0, 976.0, 976.0, 977.0, 976.0, 973.0, 974.0, 976.0, 976.0, 973.0, 973.0, 975.0, 977.0, 974.0, 977.0, 976.0, 980.0, 981.0, 975.0, 973.0, 973.0, 977.0, 977.0, 977.0, 975.0, 975.0, 973.0, 976.0, 975.0, 977.0, 977.0, 976.0, 976.0, 977.0, 976.0, 974.0, 974.0, 975.0, 973.0, 970.0, 975.0, 977.0, 976.0, 976.0, 978.0, 975.0, 975.0, 978.0, 975.0, 972.0, 976.0, 978.0, 974.0, 971.0, 975.0, 978.0, 976.0, 976.0, 979.0, 978.0, 976.0, 975.0, 974.0, 971.0, 978.0, 980.0, 974.0, 972.0, 973.0, 975.0, 975.0, 975.0, 975.0, 976.0, 977.0, 979.0, 977.0, 975.0, 976.0, 977.0, 976.0, 977.0, 978.0, 978.0, 976.0, 977.0, 975.0, 975.0, 975.0, 972.0, 971.0, 973.0, 977.0, 979.0, 979.0, 978.0, 978.0, 978.0, 976.0, 976.0, 977.0, 973.0, 974.0, 975.0, 975.0, 973.0, 975.0, 981.0, 979.0, 976.0, 975.0, 974.0, 975.0, 976.0, 974.0, 974.0, 974.0, 976.0, 980.0, 977.0, 978.0, 979.0, 977.0, 977.0],
      "WindowWidth": [2227.0, 2224.0, 2225.0, 2222.0, 2225.0, 2224.0, 2227.0, 2234.0, 2226.0, 2220.0, 2221.0, 2212.0, 2205.0, 2207.0, 2207.0, 2211.0, 2218.0, 2225.0, 2222.0, 2225.0, 2223.0, 2222.0, 2219.0, 2219.0, 2220.0, 2217.0, 2217.0, 2219.0, 2213.0, 2212.0, 2219.0, 2215.0, 2220.0, 2229.0, 2222.0, 2219.0, 2225.0, 2225.0, 2217.0, 2218.0, 2220.0, 2216.0, 2219.0, 2230.0, 2223.0, 2218.0, 2220.0, 2211.0, 2210.0, 2216.0, 2215.0, 2221.0, 2231.0, 2229.0, 2219.0, 2218.0, 2217.0, 2220.0, 2222.0, 2215.0, 2219.0, 2208.0, 2216.0, 2223.0, 2231.0, 2221.0, 2217.0, 2217.0, 2219.0, 2210.0, 2210.0, 2225.0, 2217.0, 2222.0, 2224.0, 2229.0, 2225.0, 2215.0, 2218.0, 2220.0, 2224.0, 2221.0, 2218.0, 2223.0, 2224.0, 2220.0, 2222.0, 2225.0, 2218.0, 2214.0, 2222.0, 2217.0, 2216.0, 2222.0, 2228.0, 2230.0, 2228.0, 2219.0, 2220.0, 2225.0, 2220.0, 2212.0, 2215.0, 2221.0, 2220.0, 2212.0, 2212.0, 2218.0, 2224.0, 2216.0, 2223.0, 2221.0, 2233.0, 2232.0, 2214.0, 2212.0, 2212.0, 2225.0, 2225.0, 2224.0, 2218.0, 2216.0, 2212.0, 2220.0, 2217.0, 2224.0, 2223.0, 2219.0, 2223.0, 2221.0, 2220.0, 2215.0, 2216.0, 2219.0, 2209.0, 2203.0, 2220.0, 2222.0, 2220.0, 2222.0, 2226.0, 2217.0, 2217.0, 2228.0, 2216.0, 2209.0, 2223.0, 2226.0, 2213.0, 2208.0, 2219.0, 2226.0, 2221.0, 2221.0, 2230.0, 2226.0, 2220.0, 2218.0, 2215.0, 2208.0, 2227.0, 2231.0, 2212.0, 2208.0, 2213.0, 2218.0, 2218.0, 2219.0, 2219.0, 2221.0, 2226.0, 2229.0, 2223.0, 2219.0, 2221.0, 2222.0, 2220.0, 2224.0, 2227.0, 2226.0, 2222.0, 2225.0, 2215.0, 2218.0, 2217.0, 2208.0, 2206.0, 2213.0, 2223.0, 2229.0, 2230.0, 2227.0, 2227.0, 2225.0, 2219.0, 2223.0, 2222.0, 2213.0, 2215.0, 2218.0, 2218.0, 2213.0, 2219.0, 2235.0, 2227.0, 2220.0, 2215.0, 2214.0, 2217.0, 2222.0, 2216.0, 2215.0, 2216.0, 2221.0, 2232.0, 2221.0, 2226.0, 2229.0, 2225.0, 2222.0]
    },
    "slices": {}
  }
}