{
  "AcquisitionMatrixPE": 188,
  "AcquisitionNumber": 1,
  "AcquisitionTime": "18:54:15.042500",
  "BandwidthPerPixelPhaseEncode": 19.46,
  "BaseResolution": 188,
  "ConversionSoftware": "dcm2niix",
  "ConversionSoftwareVersion": "v1.0.20180606 GCC4.8.5",
  "DelayTime": 1.2,
  "DerivedVendorReportedEchoSpacing": 0.000820013,
  "DeviceSerialNumber": "18930",
  "DwellTime": 1.9e-06,
  "EchoTime": 0.02,
  "EffectiveEchoSpacing": 0.000273338,
  "FlipAngle": 80,
  "ImageComments": "Unaliased_MB2_PE2",
  "ImageOrientationPatientDICOM": [0.998691, 0.010459, -0.0500669, -0.051028, 0.136815, -0.989281],
  "ImageType": [
    "ORIGINAL",
    "PRIMARY",
    "M",
    "MB",
    "ND",
    "MOSAIC"
],
  "InPlanePhaseEncodingDirectionDICOM": "COL",
  "InstitutionAddress": "Oxfordlaan_55_Maastricht_Limburg_NL_6229_EV",
  "InstitutionName": "Scannexus",
  "InstitutionalDepartmentName": "MRI_7T",
  "MRAcquisitionType": "2D",
  "MagneticFieldStrength": 6.98,
  "Manufacturer": "Siemens",
  "ManufacturersModelName": "Investigational_Device_7T",
  "Modality": "MR",
  "MultibandAccelerationFactor": 2,
  "ParallelReductionFactorInPlane": 3,
  "PartialFourier": 0.75,
  "PatientPosition": "HFS",
  "PercentPhaseFOV": 100,
  "PhaseEncodingDirection": "j",
  "PhaseEncodingSteps": 141,
  "PhaseResolution": 1,
  "PixelBandwidth": 1400,
  "ProcedureStepDescription": "FeDem_fMRI",
  "ProtocolName": "cmrr_mbep2d_bold_AP_run1",
  "PulseSequenceDetails": "%CustomerSeq%_cmrr_mbep2d_bold",
  "ReceiveCoilName": "32Ch_Head_7T",
  "ReconMatrixPE": 188,
  "RepetitionTime": 2.6,
  "SAR": 0.0754563,
  "ScanOptions": "PFP_FS",
  "ScanningSequence": "EP",
  "SequenceName": "epfid2d1_188",
  "SequenceVariant": "SK_SS",
  "SeriesDescription": "cmrr_mbep2d_bold_AP_run1",
  "SeriesNumber": 10,
  "ShimSetting": [55, -94, 530, 314, -232, 380, -108, 83],
  "SliceThickness": 1.1,
  "SliceTiming": [0, 0.7325, 0.0625, 0.795, 0.1225, 0.855, 0.1825, 0.9175, 0.245, 0.9775, 0.305, 1.04, 0.3675, 1.1, 0.4275, 1.1625, 0.49, 1.2225, 0.55, 1.2825, 0.6125, 1.345, 0.6725, 0, 0.7325, 0.0625, 0.795, 0.1225, 0.855, 0.1825, 0.9175, 0.245, 0.9775, 0.305, 1.04, 0.3675, 1.1, 0.4275, 1.1625, 0.49, 1.2225, 0.55, 1.2825, 0.6125, 1.345, 0.6725],
  "SoftwareVersions": "syngo_MR_B17",
  "SpacingBetweenSlices": 1.1,
  "StationName": "MRC18930",
  "TaskName": "auditory",
  "TotalReadoutTime": 0.0511141,
  "TxRefAmp": 279,
  "dcmmeta_affine": [
    [-1.0943105220794678, -0.05591363459825516, 0.0038466667756438255, 104.14334869384766],
    [-0.011460354551672935, 0.14991402626037598, -1.0895949602127075, 32.815391540527344],
    [-0.05486052483320236, 1.0839999914169312, 0.1508861929178238, -117.40580749511719],
    [0.0, 0.0, 0.0, 1.0]
],
  "dcmmeta_reorient_transform": [
    [0.0, -1.0, 0.0, 187.0],
    [1.0, 0.0, 0.0, 0.0],
    [0.0, 0.0, 1.0, 0.0],
    [0.0, 0.0, 0.0, 1.0]
],
  "dcmmeta_shape": [188, 188, 46, 220],
  "dcmmeta_slice_dim": 2,
  "dcmmeta_version": 0.6,
  "global": {
    "const": {
      "AcquisitionMatrix": [188, 0, 0, 188],
      "AngioFlag": "N",
      "BitsAllocated": 16,
      "BitsStored": 12,
      "Columns": 1316,
      "EchoNumbers": 1,
      "EchoTime": 20.0,
      "EchoTrainLength": 1,
      "FlipAngle": 80.0,
      "HighBit": 11,
      "ImageOrientationPatient": [0.99869110192878, 0.01045896377737, -0.0500668853135, -0.0510279738583, 0.13681473115299, -0.9892814944309],
      "ImagePositionPatient": [-679.34333833819, -151.86446109028, 727.6195128488],
      "ImageType": [
        "ORIGINAL",
        "PRIMARY",
        "M",
        "MB",
        "ND",
        "MOSAIC"
],
      "ImagedNucleus": "1H",
      "ImagingFrequency": 297.205543,
      "InPlanePhaseEncodingDirection": "COL",
      "LargestImagePixelValue": 4095,
      "MRAcquisitionType": "2D",
      "MagneticFieldStrength": 6.98,
      "Manufacturer": "SIEMENS",
      "ManufacturerModelName": "Investigational_Device_7T",
      "Modality": "MR",
      "NumberOfAverages": 1.0,
      "NumberOfPhaseEncodingSteps": 141,
      "PercentPhaseFieldOfView": 100.0,
      "PercentSampling": 100.0,
      "PerformedProcedureStepStartTime": "182006.265000",
      "PhotometricInterpretation": "MONOCHROME2",
      "PixelBandwidth": 1400.0,
      "PixelRepresentation": 0,
      "PixelSpacing": [1.0957447290421, 1.0957447290421],
      "ProtocolName": "cmrr_mbep2d_bold_AP_run1",
      "RepetitionTime": 2600.0,
      "Rows": 1316,
      "SAR": 0.07545631200658,
      "SamplesPerPixel": 1,
      "ScanOptions": [
        "PFP",
        "FS"
],
      "ScanningSequence": "EP",
      "SequenceName": "epfid2d1_188",
      "SequenceVariant": [
        "SK",
        "SS"
],
      "SeriesDescription": "cmrr_mbep2d_bold_AP_run1",
      "SeriesNumber": 10,
      "SeriesTime": "185522.468000",
      "SliceLocation": -48.245298268939,
      "SliceThickness": 1.1000000238419,
      "SmallestImagePixelValue": 0,
      "SoftwareVersions": "syngo MR B17",
      "SpacingBetweenSlices": 1.0999993358473,
      "SpecificCharacterSet": "ISO_IR 100",
      "StudyID": "1",
      "StudyTime": "182006.125000",
      "TransmitCoilName": "32Ch_Head_7T",
      "VariableFlipAngleFlag": "N",
      "WindowCenterWidthExplanation": "Algo1",
      "dBdt": 0.0},
    "slices": {}
  },
  "time": {
    "samples": {
      "AcquisitionNumber": [1, 2, 3, 4, 5, 6, 7, 8, 9, 10, 11, 12, 13, 14, 15, 16, 17, 18, 19, 20, 21, 22, 23, 24, 25, 26, 27, 28, 29, 30, 31, 32, 33, 34, 35, 36, 37, 38, 39, 40, 41, 42, 43, 44, 45, 46, 47, 48, 49, 50, 51, 52, 53, 54, 55, 56, 57, 58, 59, 60, 61, 62, 63, 64, 65, 66, 67, 68, 69, 70, 71, 72, 73, 74, 75, 76, 77, 78, 79, 80, 81, 82, 83, 84, 85, 86, 87, 88, 89, 90, 91, 92, 93, 94, 95, 96, 97, 98, 99, 100, 101, 102, 103, 104, 105, 106, 107, 108, 109, 110, 111, 112, 113, 114, 115, 116, 117, 118, 119, 120, 121, 122, 123, 124, 125, 126, 127, 128, 129, 130, 131, 132, 133, 134, 135, 136, 137, 138, 139, 140, 141, 142, 143, 144, 145, 146, 147, 148, 149, 150, 151, 152, 153, 154, 155, 156, 157, 158, 159, 160, 161, 162, 163, 164, 165, 166, 167, 168, 169, 170, 171, 172, 173, 174, 175, 176, 177, 178, 179, 180, 181, 182, 183, 184, 185, 186, 187, 188, 189, 190, 191, 192, 193, 194, 195, 196, 197, 198, 199, 200, 201, 202, 203, 204, 205, 206, 207, 208, 209, 210, 211, 212, 213, 214, 215, 216, 217, 218, 219, 220],
      "AcquisitionTime": ["185415.042500", "185417.652500", "185420.265000", "185422.875000", "185425.485000", "185428.095000", "185430.705000", "185433.315000", "185435.927500", "185438.537500", "185441.147500", "185443.757500", "185446.367500", "185448.977500", "185451.590000", "185454.200000", "185456.810000", "185459.420000", "185502.030000", "185504.642500", "185507.252500", "185509.862500", "185512.472500", "185515.082500", "185517.692500", "185520.305000", "185522.915000", "185525.525000", "185528.135000", "185530.745000", "185533.355000", "185535.967500", "185538.577500", "185541.187500", "185543.797500", "185546.407500", "185549.020000", "185551.630000", "185554.240000", "185556.850000", "185559.460000", "185602.070000", "185604.682500", "185607.292500", "185609.902500", "185612.512500", "185615.122500", "185617.732500", "185620.345000", "185622.955000", "185625.565000", "185628.175000", "185630.785000", "185633.397500", "185636.007500", "185638.617500", "185641.227500", "185643.837500", "185646.447500", "185649.060000", "185651.670000", "185654.280000", "185656.890000", "185659.500000", "185702.110000", "185704.722500", "185707.332500", "185709.942500", "185712.552500", "185715.162500", "185717.775000", "185720.385000", "185722.995000", "185725.605000", "185728.215000", "185730.825000", "185733.437500", "185736.047500", "185738.657500", "185741.267500", "185743.877500", "185746.487500", "185749.100000", "185751.710000", "185754.320000", "185756.930000", "185759.540000", "185802.152500", "185804.762500", "185807.372500", "185809.982500", "185812.592500", "185815.202500", "185817.815000", "185820.425000", "185823.035000", "185825.645000", "185828.255000", "185830.865000", "185833.477500", "185836.087500", "185838.697500", "185841.307500", "185843.917500", "185846.530000", "185849.140000", "185851.750000", "185854.360000", "185856.970000", "185859.580000", "185902.192500", "185904.802500", "185907.412500", "185910.022500", "185912.632500", "185915.242500", "185917.855000", "185920.465000", "185923.075000", "185925.685000", "185928.295000", "185930.907500", "185933.517500", "185936.127500", "185938.737500", "185941.347500", "185943.957500", "185946.570000", "185949.180000", "185951.790000", "185954.400000", "185957.010000", "185959.620000", "190002.232500", "190004.842500", "190007.452500", "190010.062500", "190012.672500", "190015.285000", "190017.895000", "190020.505000", "190023.115000", "190025.725000", "190028.335000", "190030.947500", "190033.557500", "190036.167500", "190038.777500", "190041.387500", "190043.997500", "190046.610000", "190049.220000", "190051.830000", "190054.440000", "190057.050000", "190059.662500", "190102.272500", "190104.882500", "190107.492500", "190110.102500", "190112.712500", "190115.325000", "190117.935000", "190120.545000", "190123.155000", "190125.765000", "190128.375000", "190130.987500", "190133.597500", "190136.207500", "190138.817500", "190141.427500", "190144.040000", "190146.650000", "190149.260000", "190151.870000", "190154.480000", "190157.090000", "190159.702500", "190202.312500", "190204.922500", "190207.532500", "190210.142500", "190212.755000", "190215.365000", "190217.975000", "190220.585000", "190223.195000", "190225.805000", "190228.417500", "190231.027500", "190233.637500", "190236.247500", "190238.857500", "190241.467500", "190244.080000", "190246.690000", "190249.300000", "190251.910000", "190254.520000", "190257.132500", "190259.742500", "190302.352500", "190304.962500", "190307.572500", "190310.182500", "190312.795000", "190315.405000", "190318.015000", "190320.625000", "190323.235000", "190325.845000", "190328.457500", "190331.067500", "190333.677500", "190336.287500", "190338.897500", "190341.510000", "190344.120000", "190346.730000"],
      "ContentTime": ["185522.468000", "185522.484000", "185522.484000", "185522.484000", "185522.484000", "185522.484000", "185522.500000", "185522.500000", "185522.500000", "185522.500000", "185522.500000", "185522.500000", "185522.500000", "185522.515000", "185522.515000", "185522.515000", "185522.515000", "185522.515000", "185522.515000", "185522.515000", "185522.515000", "185522.531000", "185522.531000", "185522.531000", "185522.531000", "185622.468000", "185622.468000", "185622.468000", "185622.468000", "185622.468000", "185622.484000", "185622.484000", "185622.484000", "185622.484000", "185622.484000", "185622.484000", "185622.484000", "185622.500000", "185622.500000", "185622.500000", "185622.500000", "185622.500000", "185622.500000", "185622.500000", "185622.500000", "185622.515000", "185622.515000", "185622.515000", "185722.468000", "185722.468000", "185722.468000", "185722.468000", "185722.468000", "185722.484000", "185722.484000", "185722.484000", "185722.484000", "185722.484000", "185722.484000", "185722.500000", "185722.500000", "185722.500000", "185722.500000", "185722.500000", "185722.500000", "185722.500000", "185722.515000", "185722.515000", "185722.515000", "185722.515000", "185722.515000", "185822.468000", "185822.468000", "185822.468000", "185822.468000", "185822.468000", "185822.484000", "185822.484000", "185822.484000", "185822.500000", "185822.500000", "185822.500000", "185822.500000", "185822.515000", "185822.515000", "185822.515000", "185822.515000", "185822.515000", "185822.531000", "185822.531000", "185822.531000", "185822.531000", "185822.531000", "185822.531000", "185922.468000", "185922.468000", "185922.468000", "185922.468000", "185922.468000", "185922.484000", "185922.484000", "185922.484000", "185922.484000", "185922.484000", "185922.484000", "185922.484000", "185922.500000", "185922.500000", "185922.500000", "185922.500000", "185922.500000", "185922.500000", "185922.500000", "185922.500000", "185922.515000", "185922.515000", "185922.515000", "190022.468000", "190022.484000", "190022.484000", "190022.484000", "190022.484000", "190022.500000", "190022.500000", "190022.500000", "190022.500000", "190022.500000", "190022.500000", "190022.500000", "190022.515000", "190022.515000", "190022.515000", "190022.515000", "190022.515000", "190022.531000", "190022.531000", "190022.531000", "190022.531000", "190022.531000", "190022.531000", "190122.468000", "190122.468000", "190122.484000", "190122.484000", "190122.484000", "190122.484000", "190122.484000", "190122.484000", "190122.484000", "190122.484000", "190122.500000", "190122.500000", "190122.500000", "190122.500000", "190122.500000", "190122.500000", "190122.500000", "190122.515000", "190122.515000", "190122.515000", "190122.515000", "190122.515000", "190122.515000", "190222.468000", "190222.468000", "190222.468000", "190222.468000", "190222.484000", "190222.484000", "190222.484000", "190222.484000", "190222.484000", "190222.484000", "190222.484000", "190222.484000", "190222.500000", "190222.500000", "190222.500000", "190222.500000", "190222.515000", "190222.515000", "190222.515000", "190222.515000", "190222.515000", "190222.531000", "190222.531000", "190322.468000", "190322.468000", "190322.468000", "190322.468000", "190322.468000", "190322.484000", "190322.484000", "190322.484000", "190322.484000", "190322.484000", "190322.500000", "190322.500000", "190322.500000", "190322.500000", "190322.500000", "190322.500000", "190322.500000", "190322.515000", "190322.515000", "190322.515000", "190322.515000", "190322.515000", "190322.515000", "190322.515000", "190353.453000", "190353.453000", "190353.453000", "190353.453000", "190353.453000", "190353.468000", "190353.468000", "190353.468000", "190353.468000", "190353.468000"],
      "InstanceCreationTime": ["185522.468000", "185522.484000", "185522.484000", "185522.484000", "185522.484000", "185522.484000", "185522.500000", "185522.500000", "185522.500000", "185522.500000", "185522.500000", "185522.500000", "185522.500000", "185522.515000", "185522.515000", "185522.515000", "185522.515000", "185522.515000", "185522.515000", "185522.515000", "185522.515000", "185522.531000", "185522.531000", "185522.531000", "185522.531000", "185622.468000", "185622.468000", "185622.468000", "185622.468000", "185622.468000", "185622.484000", "185622.484000", "185622.484000", "185622.484000", "185622.484000", "185622.484000", "185622.484000", "185622.500000", "185622.500000", "185622.500000", "185622.500000", "185622.500000", "185622.500000", "185622.500000", "185622.500000", "185622.515000", "185622.515000", "185622.515000", "185722.468000", "185722.468000", "185722.468000", "185722.468000", "185722.468000", "185722.484000", "185722.484000", "185722.484000", "185722.484000", "185722.484000", "185722.484000", "185722.500000", "185722.500000", "185722.500000", "185722.500000", "185722.500000", "185722.500000", "185722.500000", "185722.515000", "185722.515000", "185722.515000", "185722.515000", "185722.515000", "185822.468000", "185822.468000", "185822.468000", "185822.468000", "185822.468000", "185822.484000", "185822.484000", "185822.484000", "185822.500000", "185822.500000", "185822.500000", "185822.500000", "185822.515000", "185822.515000", "185822.515000", "185822.515000", "185822.515000", "185822.531000", "185822.531000", "185822.531000", "185822.531000", "185822.531000", "185822.531000", "185922.468000", "185922.468000", "185922.468000", "185922.468000", "185922.468000", "185922.484000", "185922.484000", "185922.484000", "185922.484000", "185922.484000", "185922.484000", "185922.484000", "185922.500000", "185922.500000", "185922.500000", "185922.500000", "185922.500000", "185922.500000", "185922.500000", "185922.500000", "185922.515000", "185922.515000", "185922.515000", "190022.468000", "190022.484000", "190022.484000", "190022.484000", "190022.484000", "190022.500000", "190022.500000", "190022.500000", "190022.500000", "190022.500000", "190022.500000", "190022.500000", "190022.515000", "190022.515000", "190022.515000", "190022.515000", "190022.515000", "190022.531000", "190022.531000", "190022.531000", "190022.531000", "190022.531000", "190022.531000", "190122.468000", "190122.468000", "190122.484000", "190122.484000", "190122.484000", "190122.484000", "190122.484000", "190122.484000", "190122.484000", "190122.484000", "190122.500000", "190122.500000", "190122.500000", "190122.500000", "190122.500000", "190122.500000", "190122.500000", "190122.515000", "190122.515000", "190122.515000", "190122.515000", "190122.515000", "190122.515000", "190222.468000", "190222.468000", "190222.468000", "190222.468000", "190222.484000", "190222.484000", "190222.484000", "190222.484000", "190222.484000", "190222.484000", "190222.484000", "190222.484000", "190222.500000", "190222.500000", "190222.500000", "190222.500000", "190222.515000", "190222.515000", "190222.515000", "190222.515000", "190222.515000", "190222.531000", "190222.531000", "190322.468000", "190322.468000", "190322.468000", "190322.468000", "190322.468000", "190322.484000", "190322.484000", "190322.484000", "190322.484000", "190322.484000", "190322.500000", "190322.500000", "190322.500000", "190322.500000", "190322.500000", "190322.500000", "190322.500000", "190322.515000", "190322.515000", "190322.515000", "190322.515000", "190322.515000", "190322.515000", "190322.515000", "190353.453000", "190353.453000", "190353.453000", "190353.453000", "190353.453000", "190353.468000", "190353.468000", "190353.468000", "190353.468000", "190353.468000"],
      "InstanceNumber": [1, 2, 3, 4, 5, 6, 7, 8, 9, 10, 11, 12, 13, 14, 15, 16, 17, 18, 19, 20, 21, 22, 23, 24, 25, 26, 27, 28, 29, 30, 31, 32, 33, 34, 35, 36, 37, 38, 39, 40, 41, 42, 43, 44, 45, 46, 47, 48, 49, 50, 51, 52, 53, 54, 55, 56, 57, 58, 59, 60, 61, 62, 63, 64, 65, 66, 67, 68, 69, 70, 71, 72, 73, 74, 75, 76, 77, 78, 79, 80, 81, 82, 83, 84, 85, 86, 87, 88, 89, 90, 91, 92, 93, 94, 95, 96, 97, 98, 99, 100, 101, 102, 103, 104, 105, 106, 107, 108, 109, 110, 111, 112, 113, 114, 115, 116, 117, 118, 119, 120, 121, 122, 123, 124, 125, 126, 127, 128, 129, 130, 131, 132, 133, 134, 135, 136, 137, 138, 139, 140, 141, 142, 143, 144, 145, 146, 147, 148, 149, 150, 151, 152, 153, 154, 155, 156, 157, 158, 159, 160, 161, 162, 163, 164, 165, 166, 167, 168, 169, 170, 171, 172, 173, 174, 175, 176, 177, 178, 179, 180, 181, 182, 183, 184, 185, 186, 187, 188, 189, 190, 191, 192, 193, 194, 195, 196, 197, 198, 199, 200, 201, 202, 203, 204, 205, 206, 207, 208, 209, 210, 211, 212, 213, 214, 215, 216, 217, 218, 219, 220],
      "WindowCenter": [908.0, 907.0, 907.0, 907.0, 908.0, 907.0, 908.0, 908.0, 908.0, 908.0, 908.0, 907.0, 908.0, 908.0, 907.0, 907.0, 907.0, 908.0, 907.0, 908.0, 908.0, 908.0, 908.0, 908.0, 908.0, 908.0, 908.0, 907.0, 907.0, 907.0, 908.0, 907.0, 906.0, 906.0, 906.0, 907.0, 907.0, 907.0, 907.0, 907.0, 908.0, 908.0, 908.0, 908.0, 908.0, 908.0, 907.0, 907.0, 907.0, 908.0, 908.0, 907.0, 907.0, 907.0, 907.0, 907.0, 908.0, 908.0, 908.0, 908.0, 908.0, 908.0, 908.0, 907.0, 908.0, 908.0, 908.0, 907.0, 908.0, 907.0, 907.0, 907.0, 907.0, 907.0, 908.0, 907.0, 907.0, 906.0, 907.0, 907.0, 907.0, 908.0, 908.0, 908.0, 907.0, 906.0, 907.0, 908.0, 908.0, 907.0, 907.0, 908.0, 907.0, 907.0, 908.0, 908.0, 908.0, 908.0, 908.0, 908.0, 907.0, 907.0, 908.0, 908.0, 908.0, 908.0, 908.0, 907.0, 908.0, 909.0, 907.0, 908.0, 908.0, 908.0, 908.0, 908.0, 908.0, 908.0, 908.0, 908.0, 908.0, 907.0, 908.0, 908.0, 908.0, 908.0, 908.0, 908.0, 907.0, 907.0, 907.0, 907.0, 908.0, 909.0, 908.0, 908.0, 907.0, 907.0, 908.0, 908.0, 908.0, 909.0, 908.0, 907.0, 908.0, 908.0, 908.0, 908.0, 908.0, 908.0, 909.0, 908.0, 908.0, 907.0, 907.0, 907.0, 908.0, 908.0, 909.0, 909.0, 909.0, 909.0, 908.0, 908.0, 908.0, 909.0, 909.0, 910.0, 909.0, 909.0, 908.0, 908.0, 909.0, 910.0, 909.0, 910.0, 908.0, 908.0, 908.0, 909.0, 910.0, 909.0, 909.0, 909.0, 909.0, 909.0, 909.0, 909.0, 909.0, 909.0, 908.0, 908.0, 908.0, 908.0, 909.0, 909.0, 909.0, 908.0, 908.0, 908.0, 908.0, 908.0, 907.0, 907.0, 907.0, 908.0, 909.0, 907.0, 909.0, 910.0, 908.0, 907.0, 909.0, 908.0, 909.0, 909.0, 908.0, 909.0, 908.0, 909.0],
      "WindowWidth": [2132.0, 2128.0, 2129.0, 2128.0, 2129.0, 2129.0, 2130.0, 2131.0, 2133.0, 2132.0, 2132.0, 2129.0, 2131.0, 2131.0, 2127.0, 2128.0, 2131.0, 2132.0, 2129.0, 2130.0, 2129.0, 2132.0, 2132.0, 2130.0, 2132.0, 2132.0, 2131.0, 2128.0, 2129.0, 2129.0, 2129.0, 2129.0, 2124.0, 2122.0, 2125.0, 2127.0, 2128.0, 2128.0, 2127.0, 2127.0, 2129.0, 2131.0, 2131.0, 2130.0, 2130.0, 2133.0, 2129.0, 2127.0, 2128.0, 2133.0, 2130.0, 2125.0, 2129.0, 2128.0, 2126.0, 2126.0, 2131.0, 2131.0, 2130.0, 2132.0, 2131.0, 2129.0, 2131.0, 2126.0, 2130.0, 2130.0, 2130.0, 2128.0, 2128.0, 2129.0, 2127.0, 2127.0, 2127.0, 2128.0, 2130.0, 2126.0, 2126.0, 2124.0, 2128.0, 2129.0, 2127.0, 2129.0, 2132.0, 2130.0, 2126.0, 2125.0, 2128.0, 2131.0, 2130.0, 2126.0, 2126.0, 2131.0, 2128.0, 2128.0, 2129.0, 2130.0, 2129.0, 2130.0, 2131.0, 2130.0, 2128.0, 2129.0, 2131.0, 2131.0, 2131.0, 2129.0, 2132.0, 2128.0, 2131.0, 2133.0, 2128.0, 2129.0, 2132.0, 2131.0, 2132.0, 2132.0, 2131.0, 2132.0, 2131.0, 2130.0, 2132.0, 2127.0, 2128.0, 2131.0, 2133.0, 2132.0, 2131.0, 2131.0, 2128.0, 2127.0, 2126.0, 2129.0, 2133.0, 2136.0, 2130.0, 2130.0, 2129.0, 2128.0, 2129.0, 2131.0, 2131.0, 2134.0, 2133.0, 2129.0, 2130.0, 2130.0, 2131.0, 2132.0, 2130.0, 2131.0, 2132.0, 2133.0, 2130.0, 2127.0, 2126.0, 2129.0, 2131.0, 2132.0, 2132.0, 2135.0, 2135.0, 2132.0, 2130.0, 2130.0, 2132.0, 2133.0, 2135.0, 2137.0, 2134.0, 2133.0, 2132.0, 2132.0, 2136.0, 2135.0, 2134.0, 2136.0, 2129.0, 2129.0, 2131.0, 2134.0, 2137.0, 2131.0, 2134.0, 2133.0, 2133.0, 2134.0, 2134.0, 2134.0, 2135.0, 2135.0, 2131.0, 2132.0, 2132.0, 2132.0, 2134.0, 2133.0, 2133.0, 2130.0, 2131.0, 2129.0, 2130.0, 2131.0, 2128.0, 2128.0, 2129.0, 2134.0, 2136.0, 2127.0, 2136.0, 2136.0, 2129.0, 2130.0, 2133.0, 2131.0, 2133.0, 2133.0, 2132.0, 2135.0, 2131.0, 2133.0]
    },
    "slices": {}
  }
}