{
  "AcquisitionMatrixPE": 188,
  "AcquisitionNumber": 1,
  "AcquisitionTime": "14:02:14.187500",
  "BandwidthPerPixelPhaseEncode": 19.46,
  "BaseResolution": 188,
  "ConversionSoftware": "dcm2niix",
  "ConversionSoftwareVersion": "v1.0.20180606 GCC4.8.5",
  "DerivedVendorReportedEchoSpacing": 0.000820013,
  "DeviceSerialNumber": "18930",
  "DwellTime": 1.9e-06,
  "EchoTime": 0.02,
  "EffectiveEchoSpacing": 0.000273338,
  "FlipAngle": 75,
  "ImageComments": "Unaliased_MB2_PE2",
  "ImageOrientationPatientDICOM": [0.997797, 0.0647137, -0.0145747, -0.0326915, 0.288545, -0.956908],
  "ImageType": [
    "ORIGINAL",
    "PRIMARY",
    "M",
    "MB",
    "ND",
    "MOSAIC"
],
  "InPlanePhaseEncodingDirectionDICOM": "COL",
  "InstitutionAddress": "Oxfordlaan_55_Maastricht_22AAA2_Limburg_NL_6229_EV",
  "InstitutionName": "Scannexus",
  "InstitutionalDepartmentName": "MRI_7T",
  "MRAcquisitionType": "2D",
  "MagneticFieldStrength": 6.98,
  "Manufacturer": "Siemens",
  "ManufacturersModelName": "Investigational_Device_7T",
  "Modality": "MR",
  "MultibandAccelerationFactor": 2,
  "ParallelReductionFactorInPlane": 3,
  "PartialFourier": 0.75,
  "PatientPosition": "HFS",
  "PercentPhaseFOV": 100,
  "PhaseEncodingDirection": "j",
  "PhaseEncodingSteps": 141,
  "PhaseResolution": 1,
  "PixelBandwidth": 1400,
  "ProcedureStepDescription": "FeDem_Faruk",
  "ProtocolName": "cmrr_mbep2d_bold_rest",
  "PulseSequenceDetails": "%CustomerSeq%_cmrr_mbep2d_bold",
  "ReceiveCoilName": "32Ch_Head_7T",
  "ReconMatrixPE": 188,
  "RepetitionTime": 1.5,
  "SAR": 0.0758846,
  "ScanOptions": "PFP_FS",
  "ScanningSequence": "EP",
  "SequenceName": "epfid2d1_188",
  "SequenceVariant": "SK_SS",
  "SeriesDescription": "cmrr_mbep2d_bold_rest",
  "SeriesNumber": 24,
  "ShimSetting": [15, -75, 308, 465, -173, 248, 251, 51],
  "SliceThickness": 1.1,
  "SliceTiming": [0, 0.7825, 0.06, 0.8425, 0.12, 0.9025, 0.18, 0.9625, 0.24, 1.0225, 0.3, 1.0825, 0.36, 1.1425, 0.42, 1.2025, 0.48, 1.2625, 0.54, 1.3225, 0.6, 1.385, 0.6625, 1.445, 0.7225, 0, 0.7825, 0.06, 0.8425, 0.12, 0.9025, 0.18, 0.9625, 0.24, 1.0225, 0.3, 1.0825, 0.36, 1.1425, 0.42, 1.2025, 0.48, 1.2625, 0.54, 1.3225, 0.6, 1.385, 0.6625, 1.445, 0.7225],
  "SoftwareVersions": "syngo_MR_B17",
  "SpacingBetweenSlices": 1.1,
  "StationName": "MRC18930",
  "TaskName": "rest",
  "TotalReadoutTime": 0.0511141,
  "TxRefAmp": 187,
  "dcmmeta_affine": [
    [-1.093331217765808, -0.035821493715047836, 0.0634915828704834, 105.25408172607422],
    [-0.07090970128774643, 0.31617143750190735, -1.050804615020752, 28.105941772460938],
    [-0.015970151871442795, 1.0485270023345947, 0.319027304649353, -116.00082397460938],
    [0.0, 0.0, 0.0, 1.0]
],
  "dcmmeta_reorient_transform": [
    [0.0, -1.0, 0.0, 187.0],
    [1.0, 0.0, 0.0, 0.0],
    [0.0, 0.0, 1.0, 0.0],
    [0.0, 0.0, 0.0, 1.0]
],
  "dcmmeta_shape": [188, 188, 50, 400],
  "dcmmeta_slice_dim": 2,
  "dcmmeta_version": 0.6,
  "global": {
    "const": {
      "AcquisitionMatrix": [188, 0, 0, 188],
      "AngioFlag": "N",
      "BitsAllocated": 16,
      "BitsStored": 12,
      "Columns": 1504,
      "EchoNumbers": 1,
      "EchoTime": 20.0,
      "EchoTrainLength": 1,
      "FlipAngle": 75.0,
      "HighBit": 11,
      "ImageOrientationPatient": [0.99779743138, 0.06471370804714, -0.014574701447, -0.0326914586062, 0.28854478657843, -0.9569081328281],
      "ImagePositionPatient": [-794.39689654779, -341.92938416908, 780.5128846064],
      "ImageType": [
        "ORIGINAL",
        "PRIMARY",
        "M",
        "MB",
        "ND",
        "MOSAIC"
],
      "ImagedNucleus": "1H",
      "ImagingFrequency": 297.205738,
      "InPlanePhaseEncodingDirection": "COL",
      "LargestImagePixelValue": 4095,
      "MRAcquisitionType": "2D",
      "MagneticFieldStrength": 6.98,
      "Manufacturer": "SIEMENS",
      "ManufacturerModelName": "Investigational_Device_7T",
      "Modality": "MR",
      "NumberOfAverages": 1.0,
      "NumberOfPhaseEncodingSteps": 141,
      "PercentPhaseFieldOfView": 100.0,
      "PercentSampling": 100.0,
      "PerformedProcedureStepStartTime": "120212.343000",
      "PhotometricInterpretation": "MONOCHROME2",
      "PixelBandwidth": 1400.0,
      "PixelRepresentation": 0,
      "PixelSpacing": [1.0957447290421, 1.0957447290421],
      "ProtocolName": "cmrr_mbep2d_bold_rest",
      "RepetitionTime": 1500.0,
      "Rows": 1504,
      "SAR": 0.07588462157815,
      "SamplesPerPixel": 1,
      "ScanOptions": [
        "PFP",
        "FS"
],
      "ScanningSequence": "EP",
      "SequenceName": "epfid2d1_188",
      "SequenceVariant": [
        "SK",
        "SS"
],
      "SeriesDescription": "cmrr_mbep2d_bold_rest",
      "SeriesNumber": 24,
      "SeriesTime": "140224.390000",
      "SliceLocation": -54.416852526499,
      "SliceThickness": 1.1000000238419,
      "SmallestImagePixelValue": 0,
      "SoftwareVersions": "syngo MR B17",
      "SpacingBetweenSlices": 1.0999999984694,
      "SpecificCharacterSet": "ISO_IR 100",
      "StudyID": "1",
      "StudyTime": "120212.281000",
      "TransmitCoilName": "32Ch_Head_7T",
      "VariableFlipAngleFlag": "N",
      "WindowCenterWidthExplanation": "Algo1",
      "dBdt": 0.0},
    "slices": {}
  },
  "time": {
    "samples": {
      "AcquisitionNumber": [1, 2, 3, 4, 5, 6, 7, 8, 9, 10, 11, 12, 13, 14, 15, 16, 17, 18, 19, 20, 21, 22, 23, 24, 25, 26, 27, 28, 29, 30, 31, 32, 33, 34, 35, 36, 37, 38, 39, 40, 41, 42, 43, 44, 45, 46, 47, 48, 49, 50, 51, 52, 53, 54, 55, 56, 57, 58, 59, 60, 61, 62, 63, 64, 65, 66, 67, 68, 69, 70, 71, 72, 73, 74, 75, 76, 77, 78, 79, 80, 81, 82, 83, 84, 85, 86, 87, 88, 89, 90, 91, 92, 93, 94, 95, 96, 97, 98, 99, 100, 101, 102, 103, 104, 105, 106, 107, 108, 109, 110, 111, 112, 113, 114, 115, 116, 117, 118, 119, 120, 121, 122, 123, 124, 125, 126, 127, 128, 129, 130, 131, 132, 133, 134, 135, 136, 137, 138, 139, 140, 141, 142, 143, 144, 145, 146, 147, 148, 149, 150, 151, 152, 153, 154, 155, 156, 157, 158, 159, 160, 161, 162, 163, 164, 165, 166, 167, 168, 169, 170, 171, 172, 173, 174, 175, 176, 177, 178, 179, 180, 181, 182, 183, 184, 185, 186, 187, 188, 189, 190, 191, 192, 193, 194, 195, 196, 197, 198, 199, 200, 201, 202, 203, 204, 205, 206, 207, 208, 209, 210, 211, 212, 213, 214, 215, 216, 217, 218, 219, 220, 221, 222, 223, 224, 225, 226, 227, 228, 229, 230, 231, 232, 233, 234, 235, 236, 237, 238, 239, 240, 241, 242, 243, 244, 245, 246, 247, 248, 249, 250, 251, 252, 253, 254, 255, 256, 257, 258, 259, 260, 261, 262, 263, 264, 265, 266, 267, 268, 269, 270, 271, 272, 273, 274, 275, 276, 277, 278, 279, 280, 281, 282, 283, 284, 285, 286, 287, 288, 289, 290, 291, 292, 293, 294, 295, 296, 297, 298, 299, 300, 301, 302, 303, 304, 305, 306, 307, 308, 309, 310, 311, 312, 313, 314, 315, 316, 317, 318, 319, 320, 321, 322, 323, 324, 325, 326, 327, 328, 329, 330, 331, 332, 333, 334, 335, 336, 337, 338, 339, 340, 341, 342, 343, 344, 345, 346, 347, 348, 349, 350, 351, 352, 353, 354, 355, 356, 357, 358, 359, 360, 361, 362, 363, 364, 365, 366, 367, 368, 369, 370, 371, 372, 373, 374, 375, 376, 377, 378, 379, 380, 381, 382, 383, 384, 385, 386, 387, 388, 389, 390, 391, 392, 393, 394, 395, 396, 397, 398, 399, 400],
      "AcquisitionTime": ["140214.187500", "140215.692500", "140217.197500", "140218.705000", "140220.210000", "140221.717500", "140223.222500", "140224.727500", "140226.235000", "140227.740000", "140229.247500", "140230.752500", "140232.257500", "140233.765000", "140235.270000", "140236.777500", "140238.282500", "140239.790000", "140241.295000", "140242.800000", "140244.307500", "140245.812500", "140247.320000", "140248.825000", "140250.330000", "140251.837500", "140253.342500", "140254.850000", "140256.355000", "140257.860000", "140259.367500", "140300.872500", "140302.380000", "140303.885000", "140305.390000", "140306.897500", "140308.402500", "140309.910000", "140311.415000", "140312.922500", "140314.427500", "140315.932500", "140317.440000", "140318.945000", "140320.452500", "140321.957500", "140323.462500", "140324.970000", "140326.475000", "140327.982500", "140329.487500", "140330.992500", "140332.500000", "140334.005000", "140335.512500", "140337.017500", "140338.522500", "140340.030000", "140341.535000", "140343.042500", "140344.547500", "140346.055000", "140347.560000", "140349.065000", "140350.572500", "140352.077500", "140353.585000", "140355.090000", "140356.595000", "140358.102500", "140359.607500", "140401.115000", "140402.620000", "140404.125000", "140405.632500", "140407.137500", "140408.645000", "140410.150000", "140411.655000", "140413.162500", "140414.667500", "140416.175000", "140417.680000", "140419.187500", "140420.692500", "140422.197500", "140423.705000", "140425.210000", "140426.717500", "140428.222500", "140429.727500", "140431.235000", "140432.740000", "140434.247500", "140435.752500", "140437.257500", "140438.765000", "140440.270000", "140441.777500", "140443.282500", "140444.790000", "140446.295000", "140447.800000", "140449.307500", "140450.812500", "140452.320000", "140453.825000", "140455.330000", "140456.837500", "140458.342500", "140459.850000", "140501.355000", "140502.860000", "140504.367500", "140505.872500", "140507.380000", "140508.885000", "140510.390000", "140511.897500", "140513.402500", "140514.910000", "140516.415000", "140517.922500", "140519.427500", "140520.932500", "140522.440000", "140523.945000", "140525.452500", "140526.957500", "140528.462500", "140529.970000", "140531.475000", "140532.982500", "140534.487500", "140535.992500", "140537.500000", "140539.005000", "140540.512500", "140542.017500", "140543.522500", "140545.030000", "140546.535000", "140548.042500", "140549.547500", "140551.055000", "140552.560000", "140554.065000", "140555.572500", "140557.077500", "140558.585000", "140600.090000", "140601.595000", "140603.102500", "140604.607500", "140606.115000", "140607.620000", "140609.125000", "140610.632500", "140612.137500", "140613.645000", "140615.150000", "140616.655000", "140618.162500", "140619.667500", "140621.175000", "140622.680000", "140624.187500", "140625.692500", "140627.197500", "140628.705000", "140630.210000", "140631.717500", "140633.222500", "140634.727500", "140636.235000", "140637.740000", "140639.247500", "140640.752500", "140642.257500", "140643.765000", "140645.270000", "140646.777500", "140648.282500", "140649.790000", "140651.295000", "140652.800000", "140654.307500", "140655.812500", "140657.320000", "140658.825000", "140700.330000", "140701.837500", "140703.342500", "140704.850000", "140706.355000", "140707.860000", "140709.367500", "140710.872500", "140712.380000", "140713.885000", "140715.390000", "140716.897500", "140718.402500", "140719.910000", "140721.415000", "140722.922500", "140724.427500", "140725.932500", "140727.440000", "140728.945000", "140730.452500", "140731.957500", "140733.462500", "140734.970000", "140736.475000", "140737.982500", "140739.487500", "140740.992500", "140742.500000", "140744.005000", "140745.512500", "140747.017500", "140748.522500", "140750.030000", "140751.535000", "140753.042500", "140754.547500", "140756.055000", "140757.560000", "140759.065000", "140800.572500", "140802.077500", "140803.585000", "140805.090000", "140806.595000", "140808.102500", "140809.607500", "140811.115000", "140812.620000", "140814.125000", "140815.632500", "140817.137500", "140818.645000", "140820.150000", "140821.655000", "140823.162500", "140824.667500", "140826.175000", "140827.680000", "140829.187500", "140830.692500", "140832.197500", "140833.705000", "140835.210000", "140836.717500", "140838.222500", "140839.727500", "140841.235000", "140842.740000", "140844.247500", "140845.752500", "140847.257500", "140848.765000", "140850.270000", "140851.777500", "140853.282500", "140854.790000", "140856.295000", "140857.800000", "140859.307500", "140900.812500", "140902.320000", "140903.825000", "140905.330000", "140906.837500", "140908.342500", "140909.850000", "140911.355000", "140912.860000", "140914.367500", "140915.872500", "140917.380000", "140918.885000", "140920.390000", "140921.897500", "140923.402500", "140924.910000", "140926.415000", "140927.922500", "140929.427500", "140930.932500", "140932.440000", "140933.945000", "140935.452500", "140936.957500", "140938.462500", "140939.970000", "140941.475000", "140942.982500", "140944.487500", "140945.992500", "140947.500000", "140949.005000", "140950.512500", "140952.017500", "140953.522500", "140955.030000", "140956.535000", "140958.042500", "140959.547500", "141001.055000", "141002.560000", "141004.065000", "141005.572500", "141007.077500", "141008.585000", "141010.090000", "141011.595000", "141013.102500", "141014.607500", "141016.115000", "141017.620000", "141019.125000", "141020.632500", "141022.137500", "141023.645000", "141025.150000", "141026.655000", "141028.162500", "141029.667500", "141031.175000", "141032.680000", "141034.187500", "141035.692500", "141037.197500", "141038.705000", "141040.210000", "141041.717500", "141043.222500", "141044.727500", "141046.235000", "141047.740000", "141049.247500", "141050.752500", "141052.257500", "141053.765000", "141055.270000", "141056.777500", "141058.282500", "141059.790000", "141101.295000", "141102.800000", "141104.307500", "141105.812500", "141107.320000", "141108.825000", "141110.330000", "141111.837500", "141113.342500", "141114.850000", "141116.355000", "141117.860000", "141119.367500", "141120.872500", "141122.380000", "141123.885000", "141125.390000", "141126.897500", "141128.402500", "141129.910000", "141131.415000", "141132.922500", "141134.427500", "141135.932500", "141137.440000", "141138.945000", "141140.452500", "141141.957500", "141143.462500", "141144.970000", "141146.475000", "141147.982500", "141149.487500", "141150.992500", "141152.500000", "141154.005000", "141155.512500", "141157.017500", "141158.522500", "141200.030000", "141201.535000", "141203.042500", "141204.547500", "141206.055000", "141207.560000", "141209.065000", "141210.572500", "141212.077500", "141213.585000", "141215.090000"],
      "ContentTime": ["140224.390000", "140224.875000", "140225.375000", "140225.875000", "140226.375000", "140227.875000", "140228.875000", "140229.875000", "140230.875000", "140231.875000", "140232.875000", "140233.875000", "140235.375000", "140236.875000", "140238.375000", "140239.875000", "140241.375000", "140242.875000", "140244.375000", "140245.875000", "140247.375000", "140248.875000", "140250.375000", "140251.875000", "140253.375000", "140254.875000", "140256.375000", "140257.875000", "140259.375000", "140300.875000", "140302.375000", "140303.875000", "140305.375000", "140306.875000", "140308.375000", "140309.875000", "140311.375000", "140312.875000", "140314.375000", "140315.875000", "140317.375000", "140318.875000", "140320.375000", "140321.875000", "140323.375000", "140324.875000", "140326.375000", "140327.875000", "140329.375000", "140330.875000", "140332.375000", "140333.875000", "140335.390000", "140336.875000", "140338.390000", "140339.875000", "140341.375000", "140342.875000", "140344.375000", "140345.875000", "140347.375000", "140348.875000", "140350.375000", "140351.875000", "140353.375000", "140354.875000", "140356.375000", "140357.875000", "140359.390000", "140400.890000", "140402.375000", "140403.875000", "140405.375000", "140406.875000", "140408.375000", "140409.875000", "140411.375000", "140412.890000", "140414.375000", "140415.875000", "140417.375000", "140418.875000", "140420.375000", "140421.875000", "140423.375000", "140424.875000", "140426.375000", "140427.875000", "140429.375000", "140430.875000", "140432.375000", "140433.875000", "140435.375000", "140436.875000", "140438.375000", "140439.875000", "140441.375000", "140442.875000", "140444.375000", "140445.875000", "140447.375000", "140448.875000", "140450.375000", "140451.875000", "140453.375000", "140454.875000", "140456.375000", "140457.875000", "140459.375000", "140500.890000", "140502.375000", "140503.875000", "140505.375000", "140506.875000", "140508.375000", "140509.875000", "140511.375000", "140512.875000", "140514.375000", "140515.875000", "140517.375000", "140518.875000", "140520.375000", "140521.875000", "140523.375000", "140524.875000", "140526.375000", "140527.875000", "140529.375000", "140530.875000", "140532.375000", "140533.875000", "140535.375000", "140536.875000", "140538.375000", "140539.875000", "140541.375000", "140542.875000", "140544.390000", "140545.875000", "140547.375000", "140548.875000", "140550.375000", "140551.875000", "140553.375000", "140554.875000", "140556.375000", "140557.875000", "140559.375000", "140600.875000", "140602.390000", "140603.890000", "140605.375000", "140606.875000", "140608.375000", "140609.875000", "140611.375000", "140612.875000", "140614.375000", "140615.875000", "140617.375000", "140618.875000", "140620.375000", "140621.875000", "140623.375000", "140624.875000", "140626.375000", "140627.875000", "140629.375000", "140630.875000", "140632.375000", "140633.875000", "140635.375000", "140636.875000", "140638.375000", "140639.875000", "140641.375000", "140642.875000", "140644.375000", "140645.875000", "140647.375000", "140648.875000", "140650.375000", "140651.875000", "140653.375000", "140654.875000", "140656.375000", "140657.875000", "140659.375000", "140700.875000", "140702.375000", "140703.875000", "140705.375000", "140706.875000", "140708.375000", "140709.875000", "140711.375000", "140712.875000", "140714.375000", "140715.875000", "140717.375000", "140718.875000", "140720.375000", "140721.875000", "140723.375000", "140724.875000", "140726.375000", "140727.875000", "140729.390000", "140730.875000", "140732.375000", "140733.875000", "140735.375000", "140736.875000", "140738.375000", "140739.875000", "140741.375000", "140742.875000", "140744.375000", "140745.875000", "140747.375000", "140748.875000", "140750.375000", "140751.875000", "140753.375000", "140754.875000", "140756.375000", "140757.875000", "140759.390000", "140800.875000", "140802.375000", "140803.875000", "140805.375000", "140806.890000", "140808.375000", "140809.875000", "140811.375000", "140812.875000", "140814.375000", "140815.875000", "140817.375000", "140818.875000", "140820.375000", "140821.875000", "140823.375000", "140824.875000", "140826.375000", "140827.875000", "140829.375000", "140830.875000", "140832.375000", "140833.875000", "140835.375000", "140836.890000", "140838.375000", "140839.875000", "140841.375000", "140842.875000", "140844.375000", "140845.875000", "140847.375000", "140848.875000", "140850.375000", "140851.875000", "140853.375000", "140854.875000", "140856.375000", "140857.875000", "140859.375000", "140900.875000", "140902.390000", "140903.890000", "140905.375000", "140906.875000", "140908.375000", "140909.875000", "140911.375000", "140912.875000", "140914.375000", "140915.875000", "140917.375000", "140918.890000", "140920.375000", "140921.875000", "140923.375000", "140924.875000", "140926.375000", "140927.875000", "140929.375000", "140930.875000", "140932.375000", "140933.875000", "140935.375000", "140936.875000", "140938.375000", "140939.890000", "140941.375000", "140942.875000", "140944.375000", "140945.875000", "140947.375000", "140948.875000", "140950.375000", "140951.890000", "140953.375000", "140954.875000", "140956.375000", "140957.875000", "140959.375000", "141000.875000", "141002.375000", "141003.875000", "141005.375000", "141006.875000", "141008.375000", "141009.875000", "141011.375000", "141012.875000", "141014.375000", "141015.875000", "141017.375000", "141018.875000", "141020.375000", "141021.875000", "141023.375000", "141024.890000", "141026.390000", "141027.875000", "141029.375000", "141030.875000", "141032.375000", "141033.875000", "141035.375000", "141036.875000", "141038.375000", "141039.875000", "141041.375000", "141042.890000", "141044.375000", "141045.875000", "141047.375000", "141048.875000", "141050.375000", "141051.875000", "141053.375000", "141054.875000", "141056.375000", "141057.875000", "141059.375000", "141100.875000", "141102.375000", "141103.875000", "141105.375000", "141106.875000", "141108.375000", "141109.875000", "141111.375000", "141112.875000", "141114.375000", "141115.875000", "141117.375000", "141118.875000", "141120.375000", "141121.875000", "141123.375000", "141124.875000", "141126.390000", "141127.875000", "141129.375000", "141130.875000", "141132.375000", "141133.875000", "141135.375000", "141136.890000", "141138.375000", "141139.875000", "141141.375000", "141142.875000", "141144.375000", "141145.890000", "141147.375000", "141148.875000", "141150.375000", "141151.875000", "141153.375000", "141154.875000", "141156.375000", "141157.875000", "141159.390000", "141200.875000", "141202.375000", "141203.875000", "141205.375000", "141206.875000", "141208.375000", "141209.890000", "141211.375000", "141212.875000", "141214.375000", "141215.781000"],
      "InstanceCreationTime": ["140224.390000", "140224.875000", "140225.375000", "140225.875000", "140226.375000", "140227.875000", "140228.875000", "140229.875000", "140230.875000", "140231.875000", "140232.875000", "140233.875000", "140235.375000", "140236.875000", "140238.375000", "140239.875000", "140241.375000", "140242.875000", "140244.375000", "140245.875000", "140247.375000", "140248.875000", "140250.375000", "140251.875000", "140253.375000", "140254.875000", "140256.375000", "140257.875000", "140259.375000", "140300.875000", "140302.375000", "140303.875000", "140305.375000", "140306.875000", "140308.375000", "140309.875000", "140311.375000", "140312.875000", "140314.375000", "140315.875000", "140317.375000", "140318.875000", "140320.375000", "140321.875000", "140323.375000", "140324.875000", "140326.375000", "140327.875000", "140329.375000", "140330.875000", "140332.375000", "140333.875000", "140335.390000", "140336.875000", "140338.390000", "140339.875000", "140341.375000", "140342.875000", "140344.375000", "140345.875000", "140347.375000", "140348.875000", "140350.375000", "140351.875000", "140353.375000", "140354.875000", "140356.375000", "140357.875000", "140359.390000", "140400.890000", "140402.375000", "140403.875000", "140405.375000", "140406.875000", "140408.375000", "140409.875000", "140411.375000", "140412.890000", "140414.375000", "140415.875000", "140417.375000", "140418.875000", "140420.375000", "140421.875000", "140423.375000", "140424.875000", "140426.375000", "140427.875000", "140429.375000", "140430.875000", "140432.375000", "140433.875000", "140435.375000", "140436.875000", "140438.375000", "140439.875000", "140441.375000", "140442.875000", "140444.375000", "140445.875000", "140447.375000", "140448.875000", "140450.375000", "140451.875000", "140453.375000", "140454.875000", "140456.375000", "140457.875000", "140459.375000", "140500.890000", "140502.375000", "140503.875000", "140505.375000", "140506.875000", "140508.375000", "140509.875000", "140511.375000", "140512.875000", "140514.375000", "140515.875000", "140517.375000", "140518.875000", "140520.375000", "140521.875000", "140523.375000", "140524.875000", "140526.375000", "140527.875000", "140529.375000", "140530.875000", "140532.375000", "140533.875000", "140535.375000", "140536.875000", "140538.375000", "140539.875000", "140541.375000", "140542.875000", "140544.390000", "140545.875000", "140547.375000", "140548.875000", "140550.375000", "140551.875000", "140553.375000", "140554.875000", "140556.375000", "140557.875000", "140559.375000", "140600.875000", "140602.390000", "140603.890000", "140605.375000", "140606.875000", "140608.375000", "140609.875000", "140611.375000", "140612.875000", "140614.375000", "140615.875000", "140617.375000", "140618.875000", "140620.375000", "140621.875000", "140623.375000", "140624.875000", "140626.375000", "140627.875000", "140629.375000", "140630.875000", "140632.375000", "140633.875000", "140635.375000", "140636.875000", "140638.375000", "140639.875000", "140641.375000", "140642.875000", "140644.375000", "140645.875000", "140647.375000", "140648.875000", "140650.375000", "140651.875000", "140653.375000", "140654.875000", "140656.375000", "140657.875000", "140659.375000", "140700.875000", "140702.375000", "140703.875000", "140705.375000", "140706.875000", "140708.375000", "140709.875000", "140711.375000", "140712.875000", "140714.375000", "140715.875000", "140717.375000", "140718.875000", "140720.375000", "140721.875000", "140723.375000", "140724.875000", "140726.375000", "140727.875000", "140729.390000", "140730.875000", "140732.375000", "140733.875000", "140735.375000", "140736.875000", "140738.375000", "140739.875000", "140741.375000", "140742.875000", "140744.375000", "140745.875000", "140747.375000", "140748.875000", "140750.375000", "140751.875000", "140753.375000", "140754.875000", "140756.375000", "140757.875000", "140759.390000", "140800.875000", "140802.375000", "140803.875000", "140805.375000", "140806.890000", "140808.375000", "140809.875000", "140811.375000", "140812.875000", "140814.375000", "140815.875000", "140817.375000", "140818.875000", "140820.375000", "140821.875000", "140823.375000", "140824.875000", "140826.375000", "140827.875000", "140829.375000", "140830.875000", "140832.375000", "140833.875000", "140835.375000", "140836.890000", "140838.375000", "140839.875000", "140841.375000", "140842.875000", "140844.375000", "140845.875000", "140847.375000", "140848.875000", "140850.375000", "140851.875000", "140853.375000", "140854.875000", "140856.375000", "140857.875000", "140859.375000", "140900.875000", "140902.390000", "140903.890000", "140905.375000", "140906.875000", "140908.375000", "140909.875000", "140911.375000", "140912.875000", "140914.375000", "140915.875000", "140917.375000", "140918.890000", "140920.375000", "140921.875000", "140923.375000", "140924.875000", "140926.375000", "140927.875000", "140929.375000", "140930.875000", "140932.375000", "140933.875000", "140935.375000", "140936.875000", "140938.375000", "140939.890000", "140941.375000", "140942.875000", "140944.375000", "140945.875000", "140947.375000", "140948.875000", "140950.375000", "140951.890000", "140953.375000", "140954.875000", "140956.375000", "140957.875000", "140959.375000", "141000.875000", "141002.375000", "141003.875000", "141005.375000", "141006.875000", "141008.375000", "141009.875000", "141011.375000", "141012.875000", "141014.375000", "141015.875000", "141017.375000", "141018.875000", "141020.375000", "141021.875000", "141023.375000", "141024.890000", "141026.390000", "141027.875000", "141029.375000", "141030.875000", "141032.375000", "141033.875000", "141035.375000", "141036.875000", "141038.375000", "141039.875000", "141041.375000", "141042.890000", "141044.375000", "141045.875000", "141047.375000", "141048.875000", "141050.375000", "141051.875000", "141053.375000", "141054.875000", "141056.375000", "141057.875000", "141059.375000", "141100.875000", "141102.375000", "141103.875000", "141105.375000", "141106.875000", "141108.375000", "141109.875000", "141111.375000", "141112.875000", "141114.375000", "141115.875000", "141117.375000", "141118.875000", "141120.375000", "141121.875000", "141123.375000", "141124.875000", "141126.390000", "141127.875000", "141129.375000", "141130.875000", "141132.375000", "141133.875000", "141135.375000", "141136.890000", "141138.375000", "141139.875000", "141141.375000", "141142.875000", "141144.375000", "141145.890000", "141147.375000", "141148.875000", "141150.375000", "141151.875000", "141153.375000", "141154.875000", "141156.375000", "141157.875000", "141159.390000", "141200.875000", "141202.375000", "141203.875000", "141205.375000", "141206.875000", "141208.375000", "141209.890000", "141211.375000", "141212.875000", "141214.375000", "141215.781000"],
      "InstanceNumber": [1, 2, 3, 4, 5, 6, 7, 8, 9, 10, 11, 12, 13, 14, 15, 16, 17, 18, 19, 20, 21, 22, 23, 24, 25, 26, 27, 28, 29, 30, 31, 32, 33, 34, 35, 36, 37, 38, 39, 40, 41, 42, 43, 44, 45, 46, 47, 48, 49, 50, 51, 52, 53, 54, 55, 56, 57, 58, 59, 60, 61, 62, 63, 64, 65, 66, 67, 68, 69, 70, 71, 72, 73, 74, 75, 76, 77, 78, 79, 80, 81, 82, 83, 84, 85, 86, 87, 88, 89, 90, 91, 92, 93, 94, 95, 96, 97, 98, 99, 100, 101, 102, 103, 104, 105, 106, 107, 108, 109, 110, 111, 112, 113, 114, 115, 116, 117, 118, 119, 120, 121, 122, 123, 124, 125, 126, 127, 128, 129, 130, 131, 132, 133, 134, 135, 136, 137, 138, 139, 140, 141, 142, 143, 144, 145, 146, 147, 148, 149, 150, 151, 152, 153, 154, 155, 156, 157, 158, 159, 160, 161, 162, 163, 164, 165, 166, 167, 168, 169, 170, 171, 172, 173, 174, 175, 176, 177, 178, 179, 180, 181, 182, 183, 184, 185, 186, 187, 188, 189, 190, 191, 192, 193, 194, 195, 196, 197, 198, 199, 200, 201, 202, 203, 204, 205, 206, 207, 208, 209, 210, 211, 212, 213, 214, 215, 216, 217, 218, 219, 220, 221, 222, 223, 224, 225, 226, 227, 228, 229, 230, 231, 232, 233, 234, 235, 236, 237, 238, 239, 240, 241, 242, 243, 244, 245, 246, 247, 248, 249, 250, 251, 252, 253, 254, 255, 256, 257, 258, 259, 260, 261, 262, 263, 264, 265, 266, 267, 268, 269, 270, 271, 272, 273, 274, 275, 276, 277, 278, 279, 280, 281, 282, 283, 284, 285, 286, 287, 288, 289, 290, 291, 292, 293, 294, 295, 296, 297, 298, 299, 300, 301, 302, 303, 304, 305, 306, 307, 308, 309, 310, 311, 312, 313, 314, 315, 316, 317, 318, 319, 320, 321, 322, 323, 324, 325, 326, 327, 328, 329, 330, 331, 332, 333, 334, 335, 336, 337, 338, 339, 340, 341, 342, 343, 344, 345, 346, 347, 348, 349, 350, 351, 352, 353, 354, 355, 356, 357, 358, 359, 360, 361, 362, 363, 364, 365, 366, 367, 368, 369, 370, 371, 372, 373, 374, 375, 376, 377, 378, 379, 380, 381, 382, 383, 384, 385, 386, 387, 388, 389, 390, 391, 392, 393, 394, 395, 396, 397, 398, 399, 400],
