{
  "AcquisitionMatrixPE": 188,
  "AcquisitionNumber": 1,
  "AcquisitionTime": "17:30:5.195000",
  "BandwidthPerPixelPhaseEncode": 19.46,
  "BaseResolution": 188,
  "ConversionSoftware": "dcm2niix",
  "ConversionSoftwareVersion": "v1.0.20180606 GCC4.8.5",
  "DelayTime": 1.2,
  "DerivedVendorReportedEchoSpacing": 0.000820013,
  "DeviceSerialNumber": "18930",
  "DwellTime": 1.9e-06,
  "EchoTime": 0.02,
  "EffectiveEchoSpacing": 0.000273338,
  "FlipAngle": 80,
  "ImageComments": "Unaliased_MB2_PE2",
  "ImageOrientationPatientDICOM": [0.99873, -0.0209762, -0.0458177, -0.0417013, 0.166389, -0.985178],
  "ImageType": [
    "ORIGINAL",
    "PRIMARY",
    "M",
    "MB",
    "ND",
    "MOSAIC"
],
  "InPlanePhaseEncodingDirectionDICOM": "COL",
  "InstitutionAddress": "Oxfordlaan_55_Maastricht_Limburg_NL_6229_EV",
  "InstitutionName": "Scannexus",
  "InstitutionalDepartmentName": "MRI_7T",
  "MRAcquisitionType": "2D",
  "MagneticFieldStrength": 6.98,
  "Manufacturer": "Siemens",
  "ManufacturersModelName": "Investigational_Device_7T",
  "Modality": "MR",
  "MultibandAccelerationFactor": 2,
  "ParallelReductionFactorInPlane": 3,
  "PartialFourier": 0.75,
  "PatientPosition": "HFS",
  "PercentPhaseFOV": 100,
  "PhaseEncodingDirection": "j",
  "PhaseEncodingSteps": 141,
  "PhaseResolution": 1,
  "PixelBandwidth": 1400,
  "ProcedureStepDescription": "FeDem_fMRI",
  "ProtocolName": "cmrr_mbep2d_bold_AP_run7",
  "PulseSequenceDetails": "%CustomerSeq%_cmrr_mbep2d_bold",
  "ReceiveCoilName": "32Ch_Head_7T",
  "ReconMatrixPE": 188,
  "RepetitionTime": 2.6,
  "SAR": 0.0661732,
  "ScanOptions": "PFP_FS",
  "ScanningSequence": "EP",
  "SequenceName": "epfid2d1_188",
  "SequenceVariant": "SK_SS",
  "SeriesDescription": "cmrr_mbep2d_bold_AP_run7",
  "SeriesNumber": 16,
  "ShimSetting": [75, -68, 516, 356, -152, 330, 13, 99],
  "SliceThickness": 1.1,
  "SliceTiming": [0, 0.735, 0.0625, 0.795, 0.1225, 0.8575, 0.185, 0.9175, 0.245, 0.98, 0.3075, 1.04, 0.3675, 1.1, 0.43, 1.1625, 0.49, 1.2225, 0.55, 1.285, 0.6125, 1.345, 0.6725, 0, 0.735, 0.0625, 0.795, 0.1225, 0.8575, 0.185, 0.9175, 0.245, 0.98, 0.3075, 1.04, 0.3675, 1.1, 0.43, 1.1625, 0.49, 1.2225, 0.55, 1.285, 0.6125, 1.345, 0.6725],
  "SoftwareVersions": "syngo_MR_B17",
  "SpacingBetweenSlices": 1.1,
  "StationName": "MRC18930",
  "TaskName": "auditory",
  "TotalReadoutTime": 0.0511141,
  "TxRefAmp": 270,
  "dcmmeta_affine": [
    [-1.0943526029586792, -0.0456940121948719, -0.031117737293243408, 103.79369354248047],
    [0.02298455312848091, 0.18232011795043945, -1.0844208002090454, 26.801244735717773],
    [-0.05020447447896004, 1.0795035362243652, 0.181833416223526, -112.86929321289062],
    [0.0, 0.0, 0.0, 1.0]
],
  "dcmmeta_reorient_transform": [
    [0.0, -1.0, 0.0, 187.0],
    [1.0, 0.0, 0.0, 0.0],
    [0.0, 0.0, 1.0, 0.0],
    [0.0, 0.0, 0.0, 1.0]
],
  "dcmmeta_shape": [188, 188, 46, 223],
  "dcmmeta_slice_dim": 2,
  "dcmmeta_version": 0.6,
  "global": {
    "const": {
      "AcquisitionMatrix": [188, 0, 0, 188],
      "AngioFlag": "N",
      "BitsAllocated": 16,
      "BitsStored": 12,
      "Columns": 1316,
      "EchoNumbers": 1,
      "EchoTime": 20.0,
      "EchoTrainLength": 1,
      "FlipAngle": 80.0,
      "HighBit": 11,
      "ImageOrientationPatient": [0.99872956303179, -0.0209761932897, -0.0458176738978, -0.04170132903, 0.16638922913757, -0.9851779654378],
      "ImagePositionPatient": [-686.69239106777, -150.76036784943, 726.15320939321],
      "ImageType": [
        "ORIGINAL",
        "PRIMARY",
        "M",
        "MB",
        "ND",
        "MOSAIC"
],
      "ImagedNucleus": "1H",
      "ImagingFrequency": 297.205534,
      "InPlanePhaseEncodingDirection": "COL",
      "LargestImagePixelValue": 4095,
      "MRAcquisitionType": "2D",
      "MagneticFieldStrength": 6.98,
      "Manufacturer": "SIEMENS",
      "ManufacturerModelName": "Investigational_Device_7T",
      "Modality": "MR",
      "NumberOfAverages": 1.0,
      "NumberOfPhaseEncodingSteps": 141,
      "PercentPhaseFieldOfView": 100.0,
      "PercentSampling": 100.0,
      "PerformedProcedureStepStartTime": "154854.125000",
      "PhotometricInterpretation": "MONOCHROME2",
      "PixelBandwidth": 1400.0,
      "PixelRepresentation": 0,
      "PixelSpacing": [1.0957447290421, 1.0957447290421],
      "ProtocolName": "cmrr_mbep2d_bold_AP_run7",
      "RepetitionTime": 2600.0,
      "Rows": 1316,
      "SAR": 0.06617323194022,
      "SamplesPerPixel": 1,
      "ScanOptions": [
        "PFP",
        "FS"
],
      "ScanningSequence": "EP",
      "SequenceName": "epfid2d1_188",
      "SequenceVariant": [
        "SK",
        "SS"
],
      "SeriesDescription": "cmrr_mbep2d_bold_AP_run7",
      "SeriesNumber": 16,
      "SeriesTime": "173106.093000",
      "SliceLocation": -48.015508289431,
      "SliceThickness": 1.1000000238419,
      "SmallestImagePixelValue": 0,
      "SoftwareVersions": "syngo MR B17",
      "SpacingBetweenSlices": 1.1000000276729,
      "SpecificCharacterSet": "ISO_IR 100",
      "StudyID": "1",
      "StudyTime": "154854.078000",
      "TransmitCoilName": "32Ch_Head_7T",
      "VariableFlipAngleFlag": "N",
      "WindowCenterWidthExplanation": "Algo1",
      "dBdt": 0.0},
    "slices": {}
  },
  "time": {
    "samples": {
      "AcquisitionNumber": [1, 2, 3, 4, 5, 6, 7, 8, 9, 10, 11, 12, 13, 14, 15, 16, 17, 18, 19, 20, 21, 22, 23, 24, 25, 26, 27, 28, 29, 30, 31, 32, 33, 34, 35, 36, 37, 38, 39, 40, 41, 42, 43, 44, 45, 46, 47, 48, 49, 50, 51, 52, 53, 54, 55, 56, 57, 58, 59, 60, 61, 62, 63, 64, 65, 66, 67, 68, 69, 70, 71, 72, 73, 74, 75, 76, 77, 78, 79, 80, 81, 82, 83, 84, 85, 86, 87, 88, 89, 90, 91, 92, 93, 94, 95, 96, 97, 98, 99, 100, 101, 102, 103, 104, 105, 106, 107, 108, 109, 110, 111, 112, 113, 114, 115, 116, 117, 118, 119, 120, 121, 122, 123, 124, 125, 126, 127, 128, 129, 130, 131, 132, 133, 134, 135, 136, 137, 138, 139, 140, 141, 142, 143, 144, 145, 146, 147, 148, 149, 150, 151, 152, 153, 154, 155, 156, 157, 158, 159, 160, 161, 162, 163, 164, 165, 166, 167, 168, 169, 170, 171, 172, 173, 174, 175, 176, 177, 178, 179, 180, 181, 182, 183, 184, 185, 186, 187, 188, 189, 190, 191, 192, 193, 194, 195, 196, 197, 198, 199, 200, 201, 202, 203, 204, 205, 206, 207, 208, 209, 210, 211, 212, 213, 214, 215, 216, 217, 218, 219, 220, 221, 222, 223],
      "AcquisitionTime": ["173005.195000", "173007.807500", "173010.417500", "173013.027500", "173015.637500", "173018.247500", "173020.860000", "173023.470000", "173026.080000", "173028.690000", "173031.300000", "173033.910000", "173036.522500", "173039.132500", "173041.742500", "173044.352500", "173046.962500", "173049.572500", "173052.185000", "173054.795000", "173057.405000", "173100.015000", "173102.625000", "173105.237500", "173107.847500", "173110.457500", "173113.067500", "173115.677500", "173118.287500", "173120.900000", "173123.510000", "173126.120000", "173128.730000", "173131.340000", "173133.950000", "173136.562500", "173139.172500", "173141.782500", "173144.392500", "173147.002500", "173149.615000", "173152.225000", "173154.835000", "173157.445000", "173200.055000", "173202.665000", "173205.277500", "173207.887500", "173210.497500", "173213.107500", "173215.717500", "173218.327500", "173220.940000", "173223.550000", "173226.160000", "173228.770000", "173231.380000", "173233.992500", "173236.602500", "173239.212500", "173241.822500", "173244.432500", "173247.042500", "173249.655000", "173252.265000", "173254.875000", "173257.485000", "173300.095000", "173302.705000", "173305.317500", "173307.927500", "173310.537500", "173313.147500", "173315.757500", "173318.370000", "173320.980000", "173323.590000", "173326.200000", "173328.810000", "173331.420000", "173334.032500", "173336.642500", "173339.252500", "173341.862500", "173344.472500", "173347.082500", "173349.695000", "173352.305000", "173354.915000", "173357.525000", "173400.135000", "173402.747500", "173405.357500", "173407.967500", "173410.577500", "173413.187500", "173415.797500", "173418.410000", "173421.020000", "173423.630000", "173426.240000", "173428.850000", "173431.460000", "173434.072500", "173436.682500", "173439.292500", "173441.902500", "173444.512500", "173447.125000", "173449.735000", "173452.345000", "173454.955000", "173457.565000", "173500.175000", "173502.787500", "173505.397500", "173508.007500", "173510.617500", "173513.227500", "173515.837500", "173518.450000", "173521.060000", "173523.670000", "173526.280000", "173528.890000", "173531.502500", "173534.112500", "173536.722500", "173539.332500", "173541.942500", "173544.552500", "173547.165000", "173549.775000", "173552.385000", "173554.995000", "173557.605000", "173600.215000", "173602.827500", "173605.437500", "173608.047500", "173610.657500", "173613.267500", "173615.880000", "173618.490000", "173621.100000", "173623.710000", "173626.320000", "173628.930000", "173631.542500", "173634.152500", "173636.762500", "173639.372500", "173641.982500", "173644.592500", "173647.205000", "173649.815000", "173652.425000", "173655.035000", "173657.645000", "173700.257500", "173702.867500", "173705.477500", "173708.087500", "173710.697500", "173713.307500", "173715.920000", "173718.530000", "173721.140000", "173723.750000", "173726.360000", "173728.970000", "173731.582500", "173734.192500", "173736.802500", "173739.412500", "173742.022500", "173744.635000", "173747.245000", "173749.855000", "173752.465000", "173755.075000", "173757.685000", "173800.297500", "173802.907500", "173805.517500", "173808.127500", "173810.737500", "173813.347500", "173815.960000", "173818.570000", "173821.180000", "173823.790000", "173826.400000", "173829.012500", "173831.622500", "173834.232500", "173836.842500", "173839.452500", "173842.062500", "173844.675000", "173847.285000", "173849.895000", "173852.505000", "173855.115000", "173857.727500", "173900.337500", "173902.947500", "173905.557500", "173908.167500", "173910.777500", "173913.390000", "173916.000000", "173918.610000", "173921.220000", "173923.830000", "173926.440000", "173929.052500", "173931.662500", "173934.272500", "173936.882500", "173939.492500", "173942.105000", "173944.715000"],
      "ContentTime": ["173106.093000", "173106.109000", "173106.109000", "173106.109000", "173106.109000", "173106.109000", "173106.109000", "173106.109000", "173106.125000", "173106.125000", "173106.125000", "173106.125000", "173106.125000", "173106.125000", "173106.125000", "173106.140000", "173106.140000", "173106.156000", "173106.156000", "173106.156000", "173106.156000", "173106.156000", "173206.093000", "173206.093000", "173206.093000", "173206.093000", "173206.109000", "173206.109000", "173206.109000", "173206.109000", "173206.125000", "173206.125000", "173206.125000", "173206.125000", "173206.125000", "173206.125000", "173206.125000", "173206.140000", "173206.140000", "173206.140000", "173206.140000", "173206.140000", "173206.140000", "173206.140000", "173206.140000", "173306.093000", "173306.093000", "173306.093000", "173306.093000", "173306.109000", "173306.109000", "173306.109000", "173306.109000", "173306.109000", "173306.109000", "173306.125000", "173306.125000", "173306.125000", "173306.125000", "173306.140000", "173306.140000", "173306.140000", "173306.140000", "173306.140000", "173306.140000", "173306.140000", "173306.140000", "173306.156000", "173406.093000", "173406.109000", "173406.109000", "173406.109000", "173406.109000", "173406.125000", "173406.125000", "173406.125000", "173406.125000", "173406.125000", "173406.125000", "173406.125000", "173406.140000", "173406.140000", "173406.140000", "173406.140000", "173406.140000", "173406.140000", "173406.140000", "173406.140000", "173406.156000", "173406.156000", "173406.156000", "173506.093000", "173506.093000", "173506.093000", "173506.093000", "173506.109000", "173506.109000", "173506.109000", "173506.109000", "173506.109000", "173506.109000", "173506.109000", "173506.125000", "173506.125000", "173506.125000", "173506.125000", "173506.125000", "173506.125000", "173506.125000", "173506.140000", "173506.140000", "173506.140000", "173506.156000", "173506.156000", "173606.093000", "173606.093000", "173606.109000", "173606.109000", "173606.109000", "173606.109000", "173606.109000", "173606.125000", "173606.125000", "173606.125000", "173606.125000", "173606.125000", "173606.125000", "173606.125000", "173606.125000", "173606.140000", "173606.140000", "173606.140000", "173606.140000", "173606.140000", "173606.156000", "173606.156000", "173606.156000", "173606.156000", "173706.093000", "173706.093000", "173706.093000", "173706.093000", "173706.109000", "173706.109000", "173706.109000", "173706.109000", "173706.109000", "173706.109000", "173706.109000", "173706.125000", "173706.125000", "173706.125000", "173706.125000", "173706.125000", "173706.125000", "173706.140000", "173706.140000", "173706.140000", "173706.140000", "173706.156000", "173706.171000", "173806.093000", "173806.093000", "173806.093000", "173806.093000", "173806.109000", "173806.109000", "173806.109000", "173806.109000", "173806.125000", "173806.125000", "173806.125000", "173806.125000", "173806.125000", "173806.125000", "173806.125000", "173806.125000", "173806.140000", "173806.140000", "173806.140000", "173806.140000", "173806.140000", "173806.140000", "173806.140000", "173906.093000", "173906.109000", "173906.109000", "173906.109000", "173906.109000", "173906.109000", "173906.109000", "173906.125000", "173906.125000", "173906.140000", "173906.140000", "173906.140000", "173906.140000", "173906.140000", "173906.140000", "173906.140000", "173906.140000", "173906.156000", "173906.156000", "173906.156000", "173906.156000", "173906.156000", "173906.156000", "173951.984000", "173951.984000", "173951.984000", "173951.984000", "173951.984000", "173951.984000", "173952.000000", "173952.000000", "173952.000000", "173952.000000", "173952.000000", "173952.000000", "173952.015000", "173952.015000", "173952.015000", "173952.015000"],
      "InstanceCreationTime": ["173106.093000", "173106.109000", "173106.109000", "173106.109000", "173106.109000", "173106.109000", "173106.109000", "173106.109000", "173106.125000", "173106.125000", "173106.125000", "173106.125000", "173106.125000", "173106.125000", "173106.125000", "173106.140000", "173106.140000", "173106.156000", "173106.156000", "173106.156000", "173106.156000", "173106.156000", "173206.093000", "173206.093000", "173206.093000", "173206.093000", "173206.109000", "173206.109000", "173206.109000", "173206.109000", "173206.125000", "173206.125000", "173206.125000", "173206.125000", "173206.125000", "173206.125000", "173206.125000", "173206.140000", "173206.140000", "173206.140000", "173206.140000", "173206.140000", "173206.140000", "173206.140000", "173206.140000", "173306.093000", "173306.093000", "173306.093000", "173306.093000", "173306.109000", "173306.109000", "173306.109000", "173306.109000", "173306.109000", "173306.109000", "173306.125000", "173306.125000", "173306.125000", "173306.125000", "173306.140000", "173306.140000", "173306.140000", "173306.140000", "173306.140000", "173306.140000", "173306.140000", "173306.140000", "173306.156000", "173406.093000", "173406.109000", "173406.109000", "173406.109000", "173406.109000", "173406.125000", "173406.125000", "173406.125000", "173406.125000", "173406.125000", "173406.125000", "173406.125000", "173406.140000", "173406.140000", "173406.140000", "173406.140000", "173406.140000", "173406.140000", "173406.140000", "173406.140000", "173406.156000", "173406.156000", "173406.156000", "173506.093000", "173506.093000", "173506.093000", "173506.093000", "173506.109000", "173506.109000", "173506.109000", "173506.109000", "173506.109000", "173506.109000", "173506.109000", "173506.125000", "173506.125000", "173506.125000", "173506.125000", "173506.125000", "173506.125000", "173506.125000", "173506.140000", "173506.140000", "173506.140000", "173506.156000", "173506.156000", "173606.093000", "173606.093000", "173606.109000", "173606.109000", "173606.109000", "173606.109000", "173606.109000", "173606.125000", "173606.125000", "173606.125000", "173606.125000", "173606.125000", "173606.125000", "173606.125000", "173606.125000", "173606.140000", "173606.140000", "173606.140000", "173606.140000", "173606.140000", "173606.156000", "173606.156000", "173606.156000", "173606.156000", "173706.093000", "173706.093000", "173706.093000", "173706.093000", "173706.109000", "173706.109000", "173706.109000", "173706.109000", "173706.109000", "173706.109000", "173706.109000", "173706.125000", "173706.125000", "173706.125000", "173706.125000", "173706.125000", "173706.125000", "173706.140000", "173706.140000", "173706.140000", "173706.140000", "173706.156000", "173706.171000", "173806.093000", "173806.093000", "173806.093000", "173806.093000", "173806.109000", "173806.109000", "173806.109000", "173806.109000", "173806.125000", "173806.125000", "173806.125000", "173806.125000", "173806.125000", "173806.125000", "173806.125000", "173806.125000", "173806.140000", "173806.140000", "173806.140000", "173806.140000", "173806.140000", "173806.140000", "173806.140000", "173906.093000", "173906.109000", "173906.109000", "173906.109000", "173906.109000", "173906.109000", "173906.109000", "173906.125000", "173906.125000", "173906.140000", "173906.140000", "173906.140000", "173906.140000", "173906.140000", "173906.140000", "173906.140000", "173906.140000", "173906.156000", "173906.156000", "173906.156000", "173906.156000", "173906.156000", "173906.156000", "173951.984000", "173951.984000", "173951.984000", "173951.984000", "173951.984000", "173951.984000", "173952.000000", "173952.000000", "173952.000000", "173952.000000", "173952.000000", "173952.000000", "173952.015000", "173952.015000", "173952.015000", "173952.015000"],
      "InstanceNumber": [1, 2, 3, 4, 5, 6, 7, 8, 9, 10, 11, 12, 13, 14, 15, 16, 17, 18, 19, 20, 21, 22, 23, 24, 25, 26, 27, 28, 29, 30, 31, 32, 33, 34, 35, 36, 37, 38, 39, 40, 41, 42, 43, 44, 45, 46, 47, 48, 49, 50, 51, 52, 53, 54, 55, 56, 57, 58, 59, 60, 61, 62, 63, 64, 65, 66, 67, 68, 69, 70, 71, 72, 73, 74, 75, 76, 77, 78, 79, 80, 81, 82, 83, 84, 85, 86, 87, 88, 89, 90, 91, 92, 93, 94, 95, 96, 97, 98, 99, 100, 101, 102, 103, 104, 105, 106, 107, 108, 109, 110, 111, 112, 113, 114, 115, 116, 117, 118, 119, 120, 121, 122, 123, 124, 125, 126, 127, 128, 129, 130, 131, 132, 133, 134, 135, 136, 137, 138, 139, 140, 141, 142, 143, 144, 145, 146, 147, 148, 149, 150, 151, 152, 153, 154, 155, 156, 157, 158, 159, 160, 161, 162, 163, 164, 165, 166, 167, 168, 169, 170, 171, 172, 173, 174, 175, 176, 177, 178, 179, 180, 181, 182, 183, 184, 185, 186, 187, 188, 189, 190, 191, 192, 193, 194, 195, 196, 197, 198, 199, 200, 201, 202, 203, 204, 205, 206, 207, 208, 209, 210, 211, 212, 213, 214, 215, 216, 217, 218, 219, 220, 221, 222, 223],
      "WindowCenter": [904.0, 904.0, 903.0, 903.0, 903.0, 903.0, 902.0, 900.0, 901.0, 902.0, 903.0, 902.0, 902.0, 903.0, 903.0, 902.0, 902.0, 902.0, 901.0, 901.0, 902.0, 902.0, 901.0, 902.0, 901.0, 901.0, 901.0, 901.0, 902.0, 902.0, 902.0, 901.0, 903.0, 901.0, 901.0, 903.0, 902.0, 901.0, 901.0, 902.0, 900.0, 901.0, 901.0, 900.0, 900.0, 901.0, 900.0, 901.0, 901.0, 902.0, 901.0, 901.0, 901.0, 901.0, 900.0, 902.0, 904.0, 903.0, 900.0, 900.0, 900.0, 900.0, 901.0, 900.0, 900.0, 902.0, 902.0, 902.0, 903.0, 903.0, 902.0, 902.0, 902.0, 902.0, 902.0, 902.0, 903.0, 902.0, 901.0, 900.0, 900.0, 900.0, 901.0, 901.0, 901.0, 902.0, 902.0, 902.0, 903.0, 903.0, 903.0, 902.0, 902.0, 902.0, 904.0, 902.0, 901.0, 903.0, 902.0, 902.0, 902.0, 903.0, 903.0, 902.0, 902.0, 902.0, 902.0, 903.0, 902.0, 903.0, 903.0, 902.0, 902.0, 902.0, 903.0, 902.0, 902.0, 902.0, 902.0, 902.0, 903.0, 903.0, 902.0, 903.0, 902.0, 901.0, 904.0, 903.0, 901.0, 904.0, 903.0, 902.0, 903.0, 903.0, 902.0, 903.0, 903.0, 903.0, 904.0, 903.0, 902.0, 903.0, 904.0, 903.0, 903.0, 904.0, 904.0, 904.0, 906.0, 904.0, 904.0, 905.0, 906.0, 904.0, 903.0, 904.0, 905.0, 904.0, 903.0, 904.0, 903.0, 902.0, 903.0, 904.0, 904.0, 903.0, 903.0, 902.0, 903.0, 902.0, 902.0, 903.0, 903.0, 902.0, 903.0, 904.0, 903.0, 903.0, 903.0, 904.0, 903.0, 903.0, 903.0, 904.0, 905.0, 902.0, 903.0, 904.0, 904.0, 904.0, 903.0, 903.0, 904.0, 904.0, 903.0, 904.0, 903.0, 903.0, 903.0, 904.0, 904.0, 903.0, 903.0, 904.0, 904.0, 905.0, 904.0, 903.0, 904.0, 904.0, 903.0, 905.0, 904.0, 902.0, 904.0, 906.0, 904.0, 905.0, 906.0, 904.0, 904.0, 903.0, 902.0],
      "WindowWidth": [2119.0, 2121.0, 2114.0, 2114.0, 2114.0, 2115.0, 2111.0, 2104.0, 2108.0, 2113.0, 2114.0, 2112.0, 2110.0, 2115.0, 2113.0, 2113.0, 2112.0, 2109.0, 2107.0, 2108.0, 2110.0, 2111.0, 2109.0, 2110.0, 2107.0, 2107.0, 2107.0, 2106.0, 2110.0, 2110.0, 2110.0, 2110.0, 2114.0, 2107.0, 2110.0, 2118.0, 2110.0, 2105.0, 2106.0, 2109.0, 2104.0, 2108.0, 2106.0, 2103.0, 2105.0, 2106.0, 2105.0, 2106.0, 2108.0, 2111.0, 2107.0, 2107.0, 2110.0, 2108.0, 2106.0, 2114.0, 2118.0, 2113.0, 2105.0, 2103.0, 2104.0, 2105.0, 2106.0, 2104.0, 2105.0, 2111.0, 2109.0, 2111.0, 2115.0, 2117.0, 2112.0, 2111.0, 2111.0, 2111.0, 2113.0, 2113.0, 2118.0, 2112.0, 2107.0, 2103.0, 2101.0, 2105.0, 2106.0, 2108.0, 2106.0, 2111.0, 2110.0, 2111.0, 2114.0, 2116.0, 2115.0, 2109.0, 2110.0, 2110.0, 2118.0, 2109.0, 2107.0, 2114.0, 2110.0, 2110.0, 2113.0, 2116.0, 2114.0, 2110.0, 2111.0, 2110.0, 2112.0, 2112.0, 2111.0, 2113.0, 2111.0, 2110.0, 2110.0, 2111.0, 2113.0, 2111.0, 2111.0, 2111.0, 2110.0, 2111.0, 2115.0, 2110.0, 2110.0, 2113.0, 2111.0, 2107.0, 2120.0, 2111.0, 2107.0, 2117.0, 2112.0, 2109.0, 2113.0, 2115.0, 2111.0, 2115.0, 2115.0, 2114.0, 2118.0, 2112.0, 2109.0, 2117.0, 2118.0, 2112.0, 2116.0, 2118.0, 2118.0, 2120.0, 2124.0, 2118.0, 2119.0, 2121.0, 2125.0, 2116.0, 2112.0, 2118.0, 2123.0, 2117.0, 2115.0, 2119.0, 2114.0, 2111.0, 2114.0, 2117.0, 2118.0, 2115.0, 2113.0, 2113.0, 2114.0, 2110.0, 2112.0, 2114.0, 2115.0, 2110.0, 2113.0, 2118.0, 2115.0, 2113.0, 2115.0, 2116.0, 2113.0, 2114.0, 2112.0, 2118.0, 2121.0, 2110.0, 2114.0, 2119.0, 2119.0, 2119.0, 2114.0, 2114.0, 2121.0, 2117.0, 2115.0, 2117.0, 2114.0, 2111.0, 2114.0, 2116.0, 2116.0, 2114.0, 2116.0, 2118.0, 2116.0, 2121.0, 2117.0, 2113.0, 2117.0, 2117.0, 2115.0, 2123.0, 2117.0, 2112.0, 2118.0, 2123.0, 2118.0, 2121.0, 2124.0, 2118.0, 2121.0, 2115.0, 2110.0]
    },
    "slices": {}
  }
}