{
  "AcquisitionMatrixPE": 188,
  "AcquisitionNumber": 1,
  "AcquisitionTime": "16:45:46.220000",
  "BandwidthPerPixelPhaseEncode": 19.46,
  "BaseResolution": 188,
  "ConversionSoftware": "dcm2niix",
  "ConversionSoftwareVersion": "v1.0.20180606 GCC4.8.5",
  "DelayTime": 1.2,
  "DerivedVendorReportedEchoSpacing": 0.000820013,
  "DeviceSerialNumber": "18930",
  "DwellTime": 1.9e-06,
  "EchoTime": 0.02,
  "EffectiveEchoSpacing": 0.000273338,
  "FlipAngle": 80,
  "ImageComments": "Unaliased_MB2_PE2",
  "ImageOrientationPatientDICOM": [0.99873, -0.0209762, -0.0458177, -0.0417013, 0.166389, -0.985178],
  "ImageType": [
    "ORIGINAL",
    "PRIMARY",
    "M",
    "MB",
    "ND",
    "MOSAIC"
],
  "InPlanePhaseEncodingDirectionDICOM": "COL",
  "InstitutionAddress": "Oxfordlaan_55_Maastricht_Limburg_NL_6229_EV",
  "InstitutionName": "Scannexus",
  "InstitutionalDepartmentName": "MRI_7T",
  "MRAcquisitionType": "2D",
  "MagneticFieldStrength": 6.98,
  "Manufacturer": "Siemens",
  "ManufacturersModelName": "Investigational_Device_7T",
  "Modality": "MR",
  "MultibandAccelerationFactor": 2,
  "ParallelReductionFactorInPlane": 3,
  "PartialFourier": 0.75,
  "PatientPosition": "HFS",
  "PercentPhaseFOV": 100,
  "PhaseEncodingDirection": "j",
  "PhaseEncodingSteps": 141,
  "PhaseResolution": 1,
  "PixelBandwidth": 1400,
  "ProcedureStepDescription": "FeDem_fMRI",
  "ProtocolName": "cmrr_mbep2d_bold_AP_run3",
  "PulseSequenceDetails": "%CustomerSeq%_cmrr_mbep2d_bold",
  "ReceiveCoilName": "32Ch_Head_7T",
  "ReconMatrixPE": 188,
  "RepetitionTime": 2.6,
  "SAR": 0.066178,
  "ScanOptions": "PFP_FS",
  "ScanningSequence": "EP",
  "SequenceName": "epfid2d1_188",
  "SequenceVariant": "SK_SS",
  "SeriesDescription": "cmrr_mbep2d_bold_AP_run3",
  "SeriesNumber": 12,
  "ShimSetting": [75, -68, 516, 356, -152, 330, 13, 99],
  "SliceThickness": 1.1,
  "SliceTiming": [0, 0.7325, 0.06, 0.795, 0.1225, 0.855, 0.1825, 0.9175, 0.245, 0.9775, 0.305, 1.04, 0.3675, 1.1, 0.4275, 1.16, 0.49, 1.2225, 0.55, 1.2825, 0.61, 1.345, 0.6725, 0, 0.7325, 0.06, 0.795, 0.1225, 0.855, 0.1825, 0.9175, 0.245, 0.9775, 0.305, 1.04, 0.3675, 1.1, 0.4275, 1.16, 0.49, 1.2225, 0.55, 1.2825, 0.61, 1.345, 0.6725],
  "SoftwareVersions": "syngo_MR_B17",
  "SpacingBetweenSlices": 1.1,
  "StationName": "MRC18930",
  "TaskName": "auditory",
  "TotalReadoutTime": 0.0511141,
  "TxRefAmp": 270,
  "dcmmeta_affine": [
    [-1.0943526029586792, -0.0456940121948719, -0.031117737293243408, 103.79369354248047],
    [0.02298455312848091, 0.18232011795043945, -1.0844208002090454, 26.801244735717773],
    [-0.05020447447896004, 1.0795035362243652, 0.181833416223526, -112.86929321289062],
    [0.0, 0.0, 0.0, 1.0]
],
  "dcmmeta_reorient_transform": [
    [0.0, -1.0, 0.0, 187.0],
    [1.0, 0.0, 0.0, 0.0],
    [0.0, 0.0, 1.0, 0.0],
    [0.0, 0.0, 0.0, 1.0]
],
  "dcmmeta_shape": [188, 188, 46, 223],
  "dcmmeta_slice_dim": 2,
  "dcmmeta_version": 0.6,
  "global": {
    "const": {
      "AcquisitionMatrix": [188, 0, 0, 188],
      "AngioFlag": "N",
      "BitsAllocated": 16,
      "BitsStored": 12,
      "Columns": 1316,
      "EchoNumbers": 1,
      "EchoTime": 20.0,
      "EchoTrainLength": 1,
      "FlipAngle": 80.0,
      "HighBit": 11,
      "ImageOrientationPatient": [0.99872956303179, -0.0209761932897, -0.0458176738978, -0.04170132903, 0.16638922913757, -0.9851779654378],
      "ImagePositionPatient": [-686.69239106777, -150.76036784943, 726.15320939321],
      "ImageType": [
        "ORIGINAL",
        "PRIMARY",
        "M",
        "MB",
        "ND",
        "MOSAIC"
],
      "ImagedNucleus": "1H",
      "ImagingFrequency": 297.205518,
      "InPlanePhaseEncodingDirection": "COL",
      "LargestImagePixelValue": 4095,
      "MRAcquisitionType": "2D",
      "MagneticFieldStrength": 6.98,
      "Manufacturer": "SIEMENS",
      "ManufacturerModelName": "Investigational_Device_7T",
      "Modality": "MR",
      "NumberOfAverages": 1.0,
      "NumberOfPhaseEncodingSteps": 141,
      "PercentPhaseFieldOfView": 100.0,
      "PercentSampling": 100.0,
      "PerformedProcedureStepStartTime": "154854.125000",
      "PhotometricInterpretation": "MONOCHROME2",
      "PixelBandwidth": 1400.0,
      "PixelRepresentation": 0,
      "PixelSpacing": [1.0957447290421, 1.0957447290421],
      "ProtocolName": "cmrr_mbep2d_bold_AP_run3",
      "RepetitionTime": 2600.0,
      "Rows": 1316,
      "SAR": 0.06617795575517,
      "SamplesPerPixel": 1,
      "ScanOptions": [
        "PFP",
        "FS"
],
      "ScanningSequence": "EP",
      "SequenceName": "epfid2d1_188",
      "SequenceVariant": [
        "SK",
        "SS"
],
      "SeriesDescription": "cmrr_mbep2d_bold_AP_run3",
      "SeriesNumber": 12,
      "SeriesTime": "164643.375000",
      "SliceLocation": -48.015508289431,
      "SliceThickness": 1.1000000238419,
      "SmallestImagePixelValue": 0,
      "SoftwareVersions": "syngo MR B17",
      "SpacingBetweenSlices": 1.1000000276729,
      "SpecificCharacterSet": "ISO_IR 100",
      "StudyID": "1",
      "StudyTime": "154854.078000",
      "TransmitCoilName": "32Ch_Head_7T",
      "VariableFlipAngleFlag": "N",
      "WindowCenterWidthExplanation": "Algo1",
      "dBdt": 0.0},
    "slices": {}
  },
  "time": {
    "samples": {
      "AcquisitionNumber": [1, 2, 3, 4, 5, 6, 7, 8, 9, 10, 11, 12, 13, 14, 15, 16, 17, 18, 19, 20, 21, 22, 23, 24, 25, 26, 27, 28, 29, 30, 31, 32, 33, 34, 35, 36, 37, 38, 39, 40, 41, 42, 43, 44, 45, 46, 47, 48, 49, 50, 51, 52, 53, 54, 55, 56, 57, 58, 59, 60, 61, 62, 63, 64, 65, 66, 67, 68, 69, 70, 71, 72, 73, 74, 75, 76, 77, 78, 79, 80, 81, 82, 83, 84, 85, 86, 87, 88, 89, 90, 91, 92, 93, 94, 95, 96, 97, 98, 99, 100, 101, 102, 103, 104, 105, 106, 107, 108, 109, 110, 111, 112, 113, 114, 115, 116, 117, 118, 119, 120, 121, 122, 123, 124, 125, 126, 127, 128, 129, 130, 131, 132, 133, 134, 135, 136, 137, 138, 139, 140, 141, 142, 143, 144, 145, 146, 147, 148, 149, 150, 151, 152, 153, 154, 155, 156, 157, 158, 159, 160, 161, 162, 163, 164, 165, 166, 167, 168, 169, 170, 171, 172, 173, 174, 175, 176, 177, 178, 179, 180, 181, 182, 183, 184, 185, 186, 187, 188, 189, 190, 191, 192, 193, 194, 195, 196, 197, 198, 199, 200, 201, 202, 203, 204, 205, 206, 207, 208, 209, 210, 211, 212, 213, 214, 215, 216, 217, 218, 219, 220, 221, 222, 223],
      "AcquisitionTime": ["164546.220000", "164548.830000", "164551.440000", "164554.052500", "164556.662500", "164559.272500", "164601.882500", "164604.492500", "164607.102500", "164609.715000", "164612.325000", "164614.935000", "164617.545000", "164620.155000", "164622.767500", "164625.377500", "164627.987500", "164630.597500", "164633.207500", "164635.817500", "164638.430000", "164641.040000", "164643.650000", "164646.260000", "164648.870000", "164651.480000", "164654.092500", "164656.702500", "164659.312500", "164701.922500", "164704.532500", "164707.145000", "164709.755000", "164712.365000", "164714.975000", "164717.585000", "164720.195000", "164722.807500", "164725.417500", "164728.027500", "164730.637500", "164733.247500", "164735.857500", "164738.470000", "164741.080000", "164743.690000", "164746.300000", "164748.910000", "164751.522500", "164754.132500", "164756.742500", "164759.352500", "164801.962500", "164804.572500", "164807.185000", "164809.795000", "164812.405000", "164815.015000", "164817.625000", "164820.235000", "164822.847500", "164825.457500", "164828.067500", "164830.677500", "164833.287500", "164835.900000", "164838.510000", "164841.120000", "164843.730000", "164846.340000", "164848.950000", "164851.562500", "164854.172500", "164856.782500", "164859.392500", "164902.002500", "164904.612500", "164907.225000", "164909.835000", "164912.445000", "164915.055000", "164917.665000", "164920.277500", "164922.887500", "164925.497500", "164928.107500", "164930.717500", "164933.327500", "164935.940000", "164938.550000", "164941.160000", "164943.770000", "164946.380000", "164948.990000", "164951.602500", "164954.212500", "164956.822500", "164959.432500", "165002.042500", "165004.655000", "165007.265000", "165009.875000", "165012.485000", "165015.095000", "165017.705000", "165020.317500", "165022.927500", "165025.537500", "165028.147500", "165030.757500", "165033.367500", "165035.980000", "165038.590000", "165041.200000", "165043.810000", "165046.420000", "165049.032500", "165051.642500", "165054.252500", "165056.862500", "165059.472500", "165102.082500", "165104.695000", "165107.305000", "165109.915000", "165112.525000", "165115.135000", "165117.745000", "165120.357500", "165122.967500", "165125.577500", "165128.187500", "165130.797500", "165133.410000", "165136.020000", "165138.630000", "165141.240000", "165143.850000", "165146.460000", "165149.072500", "165151.682500", "165154.292500", "165156.902500", "165159.512500", "165202.122500", "165204.735000", "165207.345000", "165209.955000", "165212.565000", "165215.175000", "165217.787500", "165220.397500", "165223.007500", "165225.617500", "165228.227500", "165230.837500", "165233.450000", "165236.060000", "165238.670000", "165241.280000", "165243.890000", "165246.500000", "165249.112500", "165251.722500", "165254.332500", "165256.942500", "165259.552500", "165302.165000", "165304.775000", "165307.385000", "165309.995000", "165312.605000", "165315.215000", "165317.827500", "165320.437500", "165323.047500", "165325.657500", "165328.267500", "165330.880000", "165333.490000", "165336.100000", "165338.710000", "165341.320000", "165343.930000", "165346.542500", "165349.152500", "165351.762500", "165354.372500", "165356.982500", "165359.592500", "165402.205000", "165404.815000", "165407.425000", "165410.035000", "165412.645000", "165415.257500", "165417.867500", "165420.477500", "165423.087500", "165425.697500", "165428.307500", "165430.920000", "165433.530000", "165436.140000", "165438.750000", "165441.360000", "165443.970000", "165446.582500", "165449.192500", "165451.802500", "165454.412500", "165457.022500", "165459.635000", "165502.245000", "165504.855000", "165507.465000", "165510.075000", "165512.685000", "165515.297500", "165517.907500", "165520.517500", "165523.127500", "165525.737500"],
      "ContentTime": ["164643.375000", "164643.390000", "164643.406000", "164643.406000", "164643.406000", "164643.406000", "164643.406000", "164643.406000", "164643.406000", "164643.421000", "164643.421000", "164643.421000", "164643.421000", "164643.421000", "164643.421000", "164643.421000", "164643.437000", "164643.437000", "164643.437000", "164643.437000", "164643.437000", "164723.375000", "164723.375000", "164723.375000", "164723.375000", "164723.390000", "164723.390000", "164723.390000", "164723.390000", "164723.390000", "164723.390000", "164723.390000", "164723.406000", "164723.406000", "164723.406000", "164723.406000", "164823.375000", "164823.390000", "164823.390000", "164823.390000", "164823.390000", "164823.390000", "164823.390000", "164823.390000", "164823.406000", "164823.406000", "164823.406000", "164823.406000", "164823.406000", "164823.406000", "164823.406000", "164823.421000", "164823.421000", "164823.421000", "164823.421000", "164823.421000", "164823.421000", "164823.421000", "164823.437000", "164923.375000", "164923.375000", "164923.375000", "164923.375000", "164923.390000", "164923.390000", "164923.390000", "164923.390000", "164923.390000", "164923.406000", "164923.406000", "164923.406000", "164923.421000", "164923.421000", "164923.421000", "164923.421000", "164923.421000", "164923.421000", "164923.421000", "164923.437000", "164923.437000", "164923.437000", "164923.437000", "165023.375000", "165023.375000", "165023.375000", "165023.390000", "165023.390000", "165023.390000", "165023.406000", "165023.406000", "165023.406000", "165023.406000", "165023.406000", "165023.406000", "165023.406000", "165023.406000", "165023.421000", "165023.421000", "165023.421000", "165023.437000", "165023.437000", "165023.437000", "165023.437000", "165023.437000", "165023.453000", "165123.375000", "165123.375000", "165123.375000", "165123.375000", "165123.406000", "165123.406000", "165123.406000", "165123.406000", "165123.421000", "165123.421000", "165123.421000", "165123.421000", "165123.421000", "165123.421000", "165123.421000", "165123.437000", "165123.437000", "165123.437000", "165123.437000", "165123.437000", "165123.437000", "165123.437000", "165123.437000", "165123.453000", "165223.375000", "165223.375000", "165223.375000", "165223.375000", "165223.390000", "165223.390000", "165223.390000", "165223.406000", "165223.406000", "165223.406000", "165223.406000", "165223.406000", "165223.406000", "165223.406000", "165223.406000", "165223.421000", "165223.421000", "165223.421000", "165223.421000", "165223.421000", "165223.421000", "165223.421000", "165223.437000", "165323.375000", "165323.375000", "165323.375000", "165323.390000", "165323.390000", "165323.390000", "165323.390000", "165323.390000", "165323.390000", "165323.406000", "165323.406000", "165323.406000", "165323.406000", "165323.406000", "165323.406000", "165323.406000", "165323.421000", "165323.421000", "165323.421000", "165323.421000", "165323.421000", "165323.421000", "165323.421000", "165423.375000", "165423.375000", "165423.375000", "165423.390000", "165423.390000", "165423.390000", "165423.390000", "165423.390000", "165423.390000", "165423.406000", "165423.406000", "165423.406000", "165423.406000", "165423.406000", "165423.406000", "165423.406000", "165423.406000", "165423.421000", "165423.421000", "165423.421000", "165423.421000", "165423.421000", "165423.421000", "165523.375000", "165523.375000", "165523.375000", "165523.375000", "165523.390000", "165523.390000", "165523.390000", "165523.406000", "165523.406000", "165523.406000", "165523.406000", "165523.406000", "165523.406000", "165523.406000", "165523.421000", "165523.421000", "165523.421000", "165523.421000", "165523.421000", "165523.421000", "165523.437000", "165523.437000", "165523.437000", "165532.656000", "165532.671000"],
      "InstanceCreationTime": ["164643.375000", "164643.390000", "164643.406000", "164643.406000", "164643.406000", "164643.406000", "164643.406000", "164643.406000", "164643.406000", "164643.421000", "164643.421000", "164643.421000", "164643.421000", "164643.421000", "164643.421000", "164643.421000", "164643.437000", "164643.437000", "164643.437000", "164643.437000", "164643.437000", "164723.375000", "164723.375000", "164723.375000", "164723.375000", "164723.390000", "164723.390000", "164723.390000", "164723.390000", "164723.390000", "164723.390000", "164723.390000", "164723.406000", "164723.406000", "164723.406000", "164723.406000", "164823.375000", "164823.390000", "164823.390000", "164823.390000", "164823.390000", "164823.390000", "164823.390000", "164823.390000", "164823.406000", "164823.406000", "164823.406000", "164823.406000", "164823.406000", "164823.406000", "164823.406000", "164823.421000", "164823.421000", "164823.421000", "164823.421000", "164823.421000", "164823.421000", "164823.421000", "164823.437000", "164923.375000", "164923.375000", "164923.375000", "164923.375000", "164923.390000", "164923.390000", "164923.390000", "164923.390000", "164923.390000", "164923.406000", "164923.406000", "164923.406000", "164923.421000", "164923.421000", "164923.421000", "164923.421000", "164923.421000", "164923.421000", "164923.421000", "164923.437000", "164923.437000", "164923.437000", "164923.437000", "165023.375000", "165023.375000", "165023.375000", "165023.390000", "165023.390000", "165023.390000", "165023.406000", "165023.406000", "165023.406000", "165023.406000", "165023.406000", "165023.406000", "165023.406000", "165023.406000", "165023.421000", "165023.421000", "165023.421000", "165023.437000", "165023.437000", "165023.437000", "165023.437000", "165023.437000", "165023.453000", "165123.375000", "165123.375000", "165123.375000", "165123.375000", "165123.406000", "165123.406000", "165123.406000", "165123.406000", "165123.421000", "165123.421000", "165123.421000", "165123.421000", "165123.421000", "165123.421000", "165123.421000", "165123.437000", "165123.437000", "165123.437000", "165123.437000", "165123.437000", "165123.437000", "165123.437000", "165123.437000", "165123.453000", "165223.375000", "165223.375000", "165223.375000", "165223.375000", "165223.390000", "165223.390000", "165223.390000", "165223.406000", "165223.406000", "165223.406000", "165223.406000", "165223.406000", "165223.406000", "165223.406000", "165223.406000", "165223.421000", "165223.421000", "165223.421000", "165223.421000", "165223.421000", "165223.421000", "165223.421000", "165223.437000", "165323.375000", "165323.375000", "165323.375000", "165323.390000", "165323.390000", "165323.390000", "165323.390000", "165323.390000", "165323.390000", "165323.406000", "165323.406000", "165323.406000", "165323.406000", "165323.406000", "165323.406000", "165323.406000", "165323.421000", "165323.421000", "165323.421000", "165323.421000", "165323.421000", "165323.421000", "165323.421000", "165423.375000", "165423.375000", "165423.375000", "165423.390000", "165423.390000", "165423.390000", "165423.390000", "165423.390000", "165423.390000", "165423.406000", "165423.406000", "165423.406000", "165423.406000", "165423.406000", "165423.406000", "165423.406000", "165423.406000", "165423.421000", "165423.421000", "165423.421000", "165423.421000", "165423.421000", "165423.421000", "165523.375000", "165523.375000", "165523.375000", "165523.375000", "165523.390000", "165523.390000", "165523.390000", "165523.406000", "165523.406000", "165523.406000", "165523.406000", "165523.406000", "165523.406000", "165523.406000", "165523.421000", "165523.421000", "165523.421000", "165523.421000", "165523.421000", "165523.421000", "165523.437000", "165523.437000", "165523.437000", "165532.656000", "165532.671000"],
      "InstanceNumber": [1, 2, 3, 4, 5, 6, 7, 8, 9, 10, 11, 12, 13, 14, 15, 16, 17, 18, 19, 20, 21, 22, 23, 24, 25, 26, 27, 28, 29, 30, 31, 32, 33, 34, 35, 36, 37, 38, 39, 40, 41, 42, 43, 44, 45, 46, 47, 48, 49, 50, 51, 52, 53, 54, 55, 56, 57, 58, 59, 60, 61, 62, 63, 64, 65, 66, 67, 68, 69, 70, 71, 72, 73, 74, 75, 76, 77, 78, 79, 80, 81, 82, 83, 84, 85, 86, 87, 88, 89, 90, 91, 92, 93, 94, 95, 96, 97, 98, 99, 100, 101, 102, 103, 104, 105, 106, 107, 108, 109, 110, 111, 112, 113, 114, 115, 116, 117, 118, 119, 120, 121, 122, 123, 124, 125, 126, 127, 128, 129, 130, 131, 132, 133, 134, 135, 136, 137, 138, 139, 140, 141, 142, 143, 144, 145, 146, 147, 148, 149, 150, 151, 152, 153, 154, 155, 156, 157, 158, 159, 160, 161, 162, 163, 164, 165, 166, 167, 168, 169, 170, 171, 172, 173, 174, 175, 176, 177, 178, 179, 180, 181, 182, 183, 184, 185, 186, 187, 188, 189, 190, 191, 192, 193, 194, 195, 196, 197, 198, 199, 200, 201, 202, 203, 204, 205, 206, 207, 208, 209, 210, 211, 212, 213, 214, 215, 216, 217, 218, 219, 220, 221, 222, 223],
      "WindowCenter": [904.0, 905.0, 905.0, 903.0, 902.0, 904.0, 904.0, 904.0, 904.0, 904.0, 904.0, 904.0, 904.0, 904.0, 904.0, 904.0, 903.0, 905.0, 905.0, 903.0, 905.0, 903.0, 903.0, 905.0, 904.0, 902.0, 904.0, 904.0, 904.0, 904.0, 905.0, 904.0, 904.0, 904.0, 904.0, 904.0, 905.0, 905.0, 904.0, 905.0, 905.0, 905.0, 904.0, 905.0, 905.0, 904.0, 905.0, 905.0, 904.0, 905.0, 905.0, 906.0, 906.0, 906.0, 905.0, 905.0, 906.0, 903.0, 904.0, 905.0, 906.0, 906.0, 905.0, 905.0, 905.0, 905.0, 905.0, 905.0, 905.0, 905.0, 904.0, 904.0, 904.0, 905.0, 903.0, 904.0, 906.0, 905.0, 904.0, 905.0, 904.0, 905.0, 906.0, 905.0, 904.0, 905.0, 905.0, 904.0, 905.0, 906.0, 904.0, 905.0, 905.0, 905.0, 905.0, 904.0, 906.0, 905.0, 905.0, 905.0, 906.0, 904.0, 904.0, 905.0, 905.0, 904.0, 906.0, 904.0, 904.0, 904.0, 903.0, 904.0, 905.0, 905.0, 905.0, 905.0, 905.0, 905.0, 905.0, 905.0, 905.0, 905.0, 904.0, 905.0, 905.0, 905.0, 904.0, 905.0, 904.0, 904.0, 905.0, 905.0, 904.0, 904.0, 904.0, 904.0, 904.0, 905.0, 905.0, 905.0, 906.0, 905.0, 905.0, 906.0, 905.0, 904.0, 904.0, 904.0, 904.0, 904.0, 904.0, 904.0, 904.0, 905.0, 906.0, 905.0, 904.0, 904.0, 905.0, 905.0, 904.0, 903.0, 904.0, 904.0, 906.0, 906.0, 905.0, 903.0, 903.0, 904.0, 903.0, 906.0, 907.0, 906.0, 906.0, 905.0, 906.0, 906.0, 906.0, 905.0, 905.0, 905.0, 906.0, 906.0, 905.0, 905.0, 905.0, 905.0, 905.0, 905.0, 906.0, 906.0, 906.0, 905.0, 906.0, 906.0, 905.0, 906.0, 905.0, 905.0, 905.0, 906.0, 906.0, 906.0, 905.0, 906.0, 907.0, 904.0, 904.0, 905.0, 905.0, 905.0, 906.0, 905.0, 905.0, 906.0, 905.0, 905.0, 906.0, 907.0, 906.0, 905.0, 905.0],
      "WindowWidth": [2122.0, 2125.0, 2123.0, 2114.0, 2113.0, 2119.0, 2121.0, 2121.0, 2120.0, 2119.0, 2118.0, 2119.0, 2120.0, 2120.0, 2121.0, 2121.0, 2116.0, 2124.0, 2123.0, 2118.0, 2124.0, 2115.0, 2118.0, 2124.0, 2121.0, 2112.0, 2119.0, 2122.0, 2120.0, 2120.0, 2122.0, 2119.0, 2119.0, 2121.0, 2119.0, 2120.0, 2124.0, 2123.0, 2120.0, 2123.0, 2123.0, 2123.0, 2122.0, 2124.0, 2123.0, 2121.0, 2124.0, 2126.0, 2120.0, 2123.0, 2126.0, 2127.0, 2128.0, 2127.0, 2124.0, 2123.0, 2129.0, 2115.0, 2120.0, 2126.0, 2129.0, 2129.0, 2125.0, 2124.0, 2126.0, 2125.0, 2123.0, 2123.0, 2123.0, 2122.0, 2119.0, 2122.0, 2122.0, 2124.0, 2116.0, 2121.0, 2128.0, 2122.0, 2122.0, 2126.0, 2121.0, 2125.0, 2126.0, 2124.0, 2122.0, 2123.0, 2124.0, 2121.0, 2124.0, 2126.0, 2120.0, 2123.0, 2123.0, 2126.0, 2122.0, 2120.0, 2127.0, 2124.0, 2122.0, 2125.0, 2128.0, 2119.0, 2120.0, 2124.0, 2122.0, 2123.0, 2126.0, 2121.0, 2121.0, 2121.0, 2116.0, 2122.0, 2125.0, 2123.0, 2124.0, 2125.0, 2122.0, 2123.0, 2124.0, 2123.0, 2125.0, 2125.0, 2121.0, 2126.0, 2124.0, 2123.0, 2121.0, 2123.0, 2122.0, 2120.0, 2124.0, 2124.0, 2121.0, 2121.0, 2120.0, 2120.0, 2119.0, 2124.0, 2125.0, 2125.0, 2129.0, 2124.0, 2126.0, 2131.0, 2125.0, 2121.0, 2118.0, 2120.0, 2120.0, 2121.0, 2122.0, 2121.0, 2120.0, 2124.0, 2126.0, 2124.0, 2120.0, 2120.0, 2123.0, 2124.0, 2121.0, 2118.0, 2122.0, 2123.0, 2129.0, 2124.0, 2121.0, 2116.0, 2116.0, 2117.0, 2118.0, 2127.0, 2129.0, 2128.0, 2125.0, 2124.0, 2126.0, 2126.0, 2126.0, 2126.0, 2125.0, 2124.0, 2127.0, 2128.0, 2122.0, 2125.0, 2123.0, 2124.0, 2124.0, 2125.0, 2127.0, 2126.0, 2126.0, 2123.0, 2126.0, 2125.0, 2125.0, 2127.0, 2123.0, 2123.0, 2123.0, 2128.0, 2126.0, 2126.0, 2123.0, 2130.0, 2132.0, 2120.0, 2120.0, 2123.0, 2121.0, 2123.0, 2124.0, 2122.0, 2122.0, 2126.0, 2122.0, 2121.0, 2125.0, 2130.0, 2127.0, 2123.0, 2123.0]
    },
    "slices": {}
  }
}