{
  "AcquisitionMatrixPE": 188,
  "AcquisitionNumber": 1,
  "AcquisitionTime": "16:23:24.192500",
  "BandwidthPerPixelPhaseEncode": 19.46,
  "BaseResolution": 188,
  "ConversionSoftware": "dcm2niix",
  "ConversionSoftwareVersion": "v1.0.20180606 GCC4.8.5",
  "DelayTime": 1.2,
  "DerivedVendorReportedEchoSpacing": 0.000820013,
  "DeviceSerialNumber": "18930",
  "DwellTime": 1.9e-06,
  "EchoTime": 0.02,
  "EffectiveEchoSpacing": 0.000273338,
  "FlipAngle": 80,
  "ImageComments": "Unaliased_MB2_PE2",
  "ImageOrientationPatientDICOM": [0.99873, -0.0209762, -0.0458177, -0.0417013, 0.166389, -0.985178],
  "ImageType": [
    "ORIGINAL",
    "PRIMARY",
    "M",
    "MB",
    "ND",
    "MOSAIC"
],
  "InPlanePhaseEncodingDirectionDICOM": "COL",
  "InstitutionAddress": "Oxfordlaan_55_Maastricht_Limburg_NL_6229_EV",
  "InstitutionName": "Scannexus",
  "InstitutionalDepartmentName": "MRI_7T",
  "MRAcquisitionType": "2D",
  "MagneticFieldStrength": 6.98,
  "Manufacturer": "Siemens",
  "ManufacturersModelName": "Investigational_Device_7T",
  "Modality": "MR",
  "MultibandAccelerationFactor": 2,
  "ParallelReductionFactorInPlane": 3,
  "PartialFourier": 0.75,
  "PatientPosition": "HFS",
  "PercentPhaseFOV": 100,
  "PhaseEncodingDirection": "j",
  "PhaseEncodingSteps": 141,
  "PhaseResolution": 1,
  "PixelBandwidth": 1400,
  "ProcedureStepDescription": "FeDem_fMRI",
  "ProtocolName": "cmrr_mbep2d_bold_AP_run1",
  "PulseSequenceDetails": "%CustomerSeq%_cmrr_mbep2d_bold",
  "ReceiveCoilName": "32Ch_Head_7T",
  "ReconMatrixPE": 188,
  "RepetitionTime": 2.6,
  "SAR": 0.0656046,
  "ScanOptions": "PFP_FS",
  "ScanningSequence": "EP",
  "SequenceName": "epfid2d1_188",
  "SequenceVariant": "SK_SS",
  "SeriesDescription": "cmrr_mbep2d_bold_AP_run1",
  "SeriesNumber": 10,
  "ShimSetting": [75, -68, 516, 356, -152, 330, 13, 99],
  "SliceThickness": 1.1,
  "SliceTiming": [0, 0.735, 0.0625, 0.795, 0.1225, 0.855, 0.185, 0.9175, 0.245, 0.9775, 0.305, 1.04, 0.3675, 1.1, 0.4275, 1.1625, 0.49, 1.2225, 0.55, 1.2825, 0.6125, 1.345, 0.6725, 0, 0.735, 0.0625, 0.795, 0.1225, 0.855, 0.185, 0.9175, 0.245, 0.9775, 0.305, 1.04, 0.3675, 1.1, 0.4275, 1.1625, 0.49, 1.2225, 0.55, 1.2825, 0.6125, 1.345, 0.6725],
  "SoftwareVersions": "syngo_MR_B17",
  "SpacingBetweenSlices": 1.1,
  "StationName": "MRC18930",
  "TaskName": "auditory",
  "TotalReadoutTime": 0.0511141,
  "TxRefAmp": 270,
  "dcmmeta_affine": [
    [-1.0943526029586792, -0.0456940121948719, -0.031117737293243408, 103.79369354248047],
    [0.02298455312848091, 0.18232011795043945, -1.0844208002090454, 26.801244735717773],
    [-0.05020447447896004, 1.0795035362243652, 0.181833416223526, -112.86929321289062],
    [0.0, 0.0, 0.0, 1.0]
],
  "dcmmeta_reorient_transform": [
    [0.0, -1.0, 0.0, 187.0],
    [1.0, 0.0, 0.0, 0.0],
    [0.0, 0.0, 1.0, 0.0],
    [0.0, 0.0, 0.0, 1.0]
],
  "dcmmeta_shape": [188, 188, 46, 222],
  "dcmmeta_slice_dim": 2,
  "dcmmeta_version": 0.6,
  "global": {
    "const": {
      "AcquisitionMatrix": [188, 0, 0, 188],
      "AngioFlag": "N",
      "BitsAllocated": 16,
      "BitsStored": 12,
      "Columns": 1316,
      "EchoNumbers": 1,
      "EchoTime": 20.0,
      "EchoTrainLength": 1,
      "FlipAngle": 80.0,
      "HighBit": 11,
      "ImageOrientationPatient": [0.99872956303179, -0.0209761932897, -0.0458176738978, -0.04170132903, 0.16638922913757, -0.9851779654378],
      "ImagePositionPatient": [-686.69239106777, -150.76036784943, 726.15320939321],
      "ImageType": [
        "ORIGINAL",
        "PRIMARY",
        "M",
        "MB",
        "ND",
        "MOSAIC"
],
      "ImagedNucleus": "1H",
      "ImagingFrequency": 297.205511,
      "InPlanePhaseEncodingDirection": "COL",
      "LargestImagePixelValue": 4095,
      "MRAcquisitionType": "2D",
      "MagneticFieldStrength": 6.98,
      "Manufacturer": "SIEMENS",
      "ManufacturerModelName": "Investigational_Device_7T",
      "Modality": "MR",
      "NumberOfAverages": 1.0,
      "NumberOfPhaseEncodingSteps": 141,
      "PercentPhaseFieldOfView": 100.0,
      "PercentSampling": 100.0,
      "PerformedProcedureStepStartTime": "154854.125000",
      "PhotometricInterpretation": "MONOCHROME2",
      "PixelBandwidth": 1400.0,
      "PixelRepresentation": 0,
      "PixelSpacing": [1.0957447290421, 1.0957447290421],
      "ProtocolName": "cmrr_mbep2d_bold_AP_run1",
      "RepetitionTime": 2600.0,
      "Rows": 1316,
      "SAR": 0.06560460625175,
      "SamplesPerPixel": 1,
      "ScanOptions": [
        "PFP",
        "FS"
],
      "ScanningSequence": "EP",
      "SequenceName": "epfid2d1_188",
      "SequenceVariant": [
        "SK",
        "SS"
],
      "SeriesDescription": "cmrr_mbep2d_bold_AP_run1",
      "SeriesNumber": 10,
      "SeriesTime": "162426.093000",
      "SliceLocation": -48.015508289431,
      "SliceThickness": 1.1000000238419,
      "SmallestImagePixelValue": 0,
      "SoftwareVersions": "syngo MR B17",
      "SpacingBetweenSlices": 1.1000000276729,
      "SpecificCharacterSet": "ISO_IR 100",
      "StudyID": "1",
      "StudyTime": "154854.078000",
      "TransmitCoilName": "32Ch_Head_7T",
      "VariableFlipAngleFlag": "N",
      "WindowCenterWidthExplanation": "Algo1",
      "dBdt": 0.0},
    "slices": {}
  },
  "time": {
    "samples": {
      "AcquisitionNumber": [1, 2, 3, 4, 5, 6, 7, 8, 9, 10, 11, 12, 13, 14, 15, 16, 17, 18, 19, 20, 21, 22, 23, 24, 25, 26, 27, 28, 29, 30, 31, 32, 33, 34, 35, 36, 37, 38, 39, 40, 41, 42, 43, 44, 45, 46, 47, 48, 49, 50, 51, 52, 53, 54, 55, 56, 57, 58, 59, 60, 61, 62, 63, 64, 65, 66, 67, 68, 69, 70, 71, 72, 73, 74, 75, 76, 77, 78, 79, 80, 81, 82, 83, 84, 85, 86, 87, 88, 89, 90, 91, 92, 93, 94, 95, 96, 97, 98, 99, 100, 101, 102, 103, 104, 105, 106, 107, 108, 109, 110, 111, 112, 113, 114, 115, 116, 117, 118, 119, 120, 121, 122, 123, 124, 125, 126, 127, 128, 129, 130, 131, 132, 133, 134, 135, 136, 137, 138, 139, 140, 141, 142, 143, 144, 145, 146, 147, 148, 149, 150, 151, 152, 153, 154, 155, 156, 157, 158, 159, 160, 161, 162, 163, 164, 165, 166, 167, 168, 169, 170, 171, 172, 173, 174, 175, 176, 177, 178, 179, 180, 181, 182, 183, 184, 185, 186, 187, 188, 189, 190, 191, 192, 193, 194, 195, 196, 197, 198, 199, 200, 201, 202, 203, 204, 205, 206, 207, 208, 209, 210, 211, 212, 213, 214, 215, 216, 217, 218, 219, 220, 221, 222],
      "AcquisitionTime": ["162324.192500", "162326.802500", "162329.415000", "162332.025000", "162334.635000", "162337.245000", "162339.855000", "162342.465000", "162345.077500", "162347.687500", "162350.297500", "162352.907500", "162355.517500", "162358.130000", "162400.740000", "162403.350000", "162405.960000", "162408.570000", "162411.180000", "162413.792500", "162416.402500", "162419.012500", "162421.622500", "162424.232500", "162426.842500", "162429.455000", "162432.065000", "162434.675000", "162437.285000", "162439.895000", "162442.507500", "162445.117500", "162447.727500", "162450.337500", "162452.947500", "162455.557500", "162458.170000", "162500.780000", "162503.390000", "162506.000000", "162508.610000", "162511.220000", "162513.832500", "162516.442500", "162519.052500", "162521.662500", "162524.272500", "162526.885000", "162529.495000", "162532.105000", "162534.715000", "162537.325000", "162539.935000", "162542.547500", "162545.157500", "162547.767500", "162550.377500", "162552.987500", "162555.597500", "162558.210000", "162600.820000", "162603.430000", "162606.040000", "162608.650000", "162611.262500", "162613.872500", "162616.482500", "162619.092500", "162621.702500", "162624.312500", "162626.925000", "162629.535000", "162632.145000", "162634.755000", "162637.365000", "162639.975000", "162642.587500", "162645.197500", "162647.807500", "162650.417500", "162653.027500", "162655.640000", "162658.250000", "162700.860000", "162703.470000", "162706.080000", "162708.690000", "162711.302500", "162713.912500", "162716.522500", "162719.132500", "162721.742500", "162724.352500", "162726.965000", "162729.575000", "162732.185000", "162734.795000", "162737.405000", "162740.017500", "162742.627500", "162745.237500", "162747.847500", "162750.457500", "162753.067500", "162755.680000", "162758.290000", "162800.900000", "162803.510000", "162806.120000", "162808.730000", "162811.342500", "162813.952500", "162816.562500", "162819.172500", "162821.782500", "162824.395000", "162827.005000", "162829.615000", "162832.225000", "162834.835000", "162837.445000", "162840.057500", "162842.667500", "162845.277500", "162847.887500", "162850.497500", "162853.107500", "162855.720000", "162858.330000", "162900.940000", "162903.550000", "162906.160000", "162908.772500", "162911.382500", "162913.992500", "162916.602500", "162919.212500", "162921.822500", "162924.435000", "162927.045000", "162929.655000", "162932.265000", "162934.875000", "162937.485000", "162940.097500", "162942.707500", "162945.317500", "162947.927500", "162950.537500", "162953.150000", "162955.760000", "162958.370000", "163000.980000", "163003.590000", "163006.200000", "163008.812500", "163011.422500", "163014.032500", "163016.642500", "163019.252500", "163021.862500", "163024.475000", "163027.085000", "163029.695000", "163032.305000", "163034.915000", "163037.527500", "163040.137500", "163042.747500", "163045.357500", "163047.967500", "163050.577500", "163053.190000", "163055.800000", "163058.410000", "163101.020000", "163103.630000", "163106.240000", "163108.852500", "163111.462500", "163114.072500", "163116.682500", "163119.292500", "163121.905000", "163124.515000", "163127.125000", "163129.735000", "163132.345000", "163134.955000", "163137.567500", "163140.177500", "163142.787500", "163145.397500", "163148.007500", "163150.617500", "163153.230000", "163155.840000", "163158.450000", "163201.060000", "163203.670000", "163206.282500", "163208.892500", "163211.502500", "163214.112500", "163216.722500", "163219.332500", "163221.945000", "163224.555000", "163227.165000", "163229.775000", "163232.385000", "163234.995000", "163237.607500", "163240.217500", "163242.827500", "163245.437500", "163248.047500", "163250.660000", "163253.270000", "163255.880000", "163258.490000", "163301.100000"],
      "ContentTime": ["162426.093000", "162426.109000", "162426.109000", "162426.109000", "162426.109000", "162426.109000", "162426.109000", "162426.109000", "162426.125000", "162426.140000", "162426.140000", "162426.140000", "162426.140000", "162426.140000", "162426.140000", "162426.156000", "162426.156000", "162426.156000", "162426.156000", "162426.156000", "162426.156000", "162426.156000", "162426.171000", "162526.093000", "162526.109000", "162526.109000", "162526.109000", "162526.125000", "162526.125000", "162526.125000", "162526.125000", "162526.125000", "162526.140000", "162526.140000", "162526.140000", "162526.140000", "162526.140000", "162526.140000", "162526.140000", "162526.156000", "162526.156000", "162526.156000", "162526.156000", "162526.156000", "162526.156000", "162526.156000", "162626.093000", "162626.093000", "162626.093000", "162626.109000", "162626.109000", "162626.109000", "162626.125000", "162626.125000", "162626.125000", "162626.125000", "162626.125000", "162626.125000", "162626.140000", "162626.140000", "162626.140000", "162626.140000", "162626.156000", "162626.156000", "162626.156000", "162626.156000", "162626.156000", "162626.156000", "162626.171000", "162706.093000", "162706.125000", "162706.125000", "162706.125000", "162706.125000", "162706.140000", "162706.140000", "162706.140000", "162706.140000", "162706.140000", "162706.156000", "162706.156000", "162706.156000", "162706.156000", "162706.156000", "162806.093000", "162806.093000", "162806.093000", "162806.109000", "162806.109000", "162806.109000", "162806.109000", "162806.109000", "162806.109000", "162806.109000", "162806.109000", "162806.125000", "162806.125000", "162806.125000", "162806.125000", "162806.125000", "162806.125000", "162806.125000", "162806.140000", "162806.140000", "162806.140000", "162806.140000", "162806.140000", "162806.140000", "162906.093000", "162906.093000", "162906.093000", "162906.109000", "162906.109000", "162906.109000", "162906.109000", "162906.109000", "162906.125000", "162906.125000", "162906.125000", "162906.125000", "162906.125000", "162906.125000", "162906.125000", "162906.125000", "162906.140000", "162906.140000", "162906.140000", "162906.140000", "162906.140000", "162906.140000", "162906.140000", "163006.093000", "163006.093000", "163006.093000", "163006.109000", "163006.109000", "163006.125000", "163006.125000", "163006.125000", "163006.125000", "163006.125000", "163006.140000", "163006.140000", "163006.140000", "163006.140000", "163006.140000", "163006.156000", "163006.156000", "163006.156000", "163006.156000", "163006.156000", "163006.156000", "163006.156000", "163006.171000", "163106.093000", "163106.093000", "163106.093000", "163106.109000", "163106.109000", "163106.109000", "163106.109000", "163106.109000", "163106.109000", "163106.109000", "163106.109000", "163106.125000", "163106.125000", "163106.125000", "163106.125000", "163106.125000", "163106.125000", "163106.125000", "163106.140000", "163106.140000", "163106.140000", "163106.140000", "163106.140000", "163206.093000", "163206.093000", "163206.093000", "163206.109000", "163206.109000", "163206.109000", "163206.109000", "163206.109000", "163206.109000", "163206.109000", "163206.109000", "163206.125000", "163206.125000", "163206.125000", "163206.125000", "163206.125000", "163206.125000", "163206.125000", "163206.140000", "163206.140000", "163206.140000", "163206.140000", "163206.140000", "163303.734000", "163303.734000", "163303.734000", "163303.734000", "163303.750000", "163303.750000", "163303.750000", "163303.750000", "163303.750000", "163303.750000", "163303.750000", "163303.765000", "163303.765000", "163303.765000", "163303.765000", "163303.765000", "163303.765000", "163303.765000", "163303.781000", "163303.781000", "163303.781000", "163303.781000"],
      "InstanceCreationTime": ["162426.093000", "162426.109000", "162426.109000", "162426.109000", "162426.109000", "162426.109000", "162426.109000", "162426.109000", "162426.125000", "162426.140000", "162426.140000", "162426.140000", "162426.140000", "162426.140000", "162426.140000", "162426.156000", "162426.156000", "162426.156000", "162426.156000", "162426.156000", "162426.156000", "162426.156000", "162426.171000", "162526.093000", "162526.109000", "162526.109000", "162526.109000", "162526.125000", "162526.125000", "162526.125000", "162526.125000", "162526.125000", "162526.140000", "162526.140000", "162526.140000", "162526.140000", "162526.140000", "162526.140000", "162526.140000", "162526.156000", "162526.156000", "162526.156000", "162526.156000", "162526.156000", "162526.156000", "162526.156000", "162626.093000", "162626.093000", "162626.093000", "162626.109000", "162626.109000", "162626.109000", "162626.125000", "162626.125000", "162626.125000", "162626.125000", "162626.125000", "162626.125000", "162626.140000", "162626.140000", "162626.140000", "162626.140000", "162626.156000", "162626.156000", "162626.156000", "162626.156000", "162626.156000", "162626.156000", "162626.171000", "162706.093000", "162706.125000", "162706.125000", "162706.125000", "162706.125000", "162706.140000", "162706.140000", "162706.140000", "162706.140000", "162706.140000", "162706.156000", "162706.156000", "162706.156000", "162706.156000", "162706.156000", "162806.093000", "162806.093000", "162806.093000", "162806.109000", "162806.109000", "162806.109000", "162806.109000", "162806.109000", "162806.109000", "162806.109000", "162806.109000", "162806.125000", "162806.125000", "162806.125000", "162806.125000", "162806.125000", "162806.125000", "162806.125000", "162806.140000", "162806.140000", "162806.140000", "162806.140000", "162806.140000", "162806.140000", "162906.093000", "162906.093000", "162906.093000", "162906.109000", "162906.109000", "162906.109000", "162906.109000", "162906.109000", "162906.125000", "162906.125000", "162906.125000", "162906.125000", "162906.125000", "162906.125000", "162906.125000", "162906.125000", "162906.140000", "162906.140000", "162906.140000", "162906.140000", "162906.140000", "162906.140000", "162906.140000", "163006.093000", "163006.093000", "163006.093000", "163006.109000", "163006.109000", "163006.125000", "163006.125000", "163006.125000", "163006.125000", "163006.125000", "163006.140000", "163006.140000", "163006.140000", "163006.140000", "163006.140000", "163006.156000", "163006.156000", "163006.156000", "163006.156000", "163006.156000", "163006.156000", "163006.156000", "163006.171000", "163106.093000", "163106.093000", "163106.093000", "163106.109000", "163106.109000", "163106.109000", "163106.109000", "163106.109000", "163106.109000", "163106.109000", "163106.109000", "163106.125000", "163106.125000", "163106.125000", "163106.125000", "163106.125000", "163106.125000", "163106.125000", "163106.140000", "163106.140000", "163106.140000", "163106.140000", "163106.140000", "163206.093000", "163206.093000", "163206.093000", "163206.109000", "163206.109000", "163206.109000", "163206.109000", "163206.109000", "163206.109000", "163206.109000", "163206.109000", "163206.125000", "163206.125000", "163206.125000", "163206.125000", "163206.125000", "163206.125000", "163206.125000", "163206.140000", "163206.140000", "163206.140000", "163206.140000", "163206.140000", "163303.734000", "163303.734000", "163303.734000", "163303.734000", "163303.750000", "163303.750000", "163303.750000", "163303.750000", "163303.750000", "163303.750000", "163303.750000", "163303.765000", "163303.765000", "163303.765000", "163303.765000", "163303.765000", "163303.765000", "163303.765000", "163303.781000", "163303.781000", "163303.781000", "163303.781000"],
      "InstanceNumber": [1, 2, 3, 4, 5, 6, 7, 8, 9, 10, 11, 12, 13, 14, 15, 16, 17, 18, 19, 20, 21, 22, 23, 24, 25, 26, 27, 28, 29, 30, 31, 32, 33, 34, 35, 36, 37, 38, 39, 40, 41, 42, 43, 44, 45, 46, 47, 48, 49, 50, 51, 52, 53, 54, 55, 56, 57, 58, 59, 60, 61, 62, 63, 64, 65, 66, 67, 68, 69, 70, 71, 72, 73, 74, 75, 76, 77, 78, 79, 80, 81, 82, 83, 84, 85, 86, 87, 88, 89, 90, 91, 92, 93, 94, 95, 96, 97, 98, 99, 100, 101, 102, 103, 104, 105, 106, 107, 108, 109, 110, 111, 112, 113, 114, 115, 116, 117, 118, 119, 120, 121, 122, 123, 124, 125, 126, 127, 128, 129, 130, 131, 132, 133, 134, 135, 136, 137, 138, 139, 140, 141, 142, 143, 144, 145, 146, 147, 148, 149, 150, 151, 152, 153, 154, 155, 156, 157, 158, 159, 160, 161, 162, 163, 164, 165, 166, 167, 168, 169, 170, 171, 172, 173, 174, 175, 176, 177, 178, 179, 180, 181, 182, 183, 184, 185, 186, 187, 188, 189, 190, 191, 192, 193, 194, 195, 196, 197, 198, 199, 200, 201, 202, 203, 204, 205, 206, 207, 208, 209, 210, 211, 212, 213, 214, 215, 216, 217, 218, 219, 220, 221, 222],
      "WindowCenter": [902.0, 902.0, 902.0, 901.0, 901.0, 901.0, 901.0, 902.0, 902.0, 901.0, 901.0, 902.0, 901.0, 901.0, 901.0, 901.0, 900.0, 901.0, 902.0, 900.0, 901.0, 902.0, 901.0, 901.0, 901.0, 901.0, 900.0, 901.0, 902.0, 901.0, 901.0, 901.0, 902.0, 901.0, 901.0, 902.0, 901.0, 901.0, 900.0, 901.0, 901.0, 901.0, 901.0, 901.0, 901.0, 901.0, 901.0, 902.0, 902.0, 901.0, 902.0, 901.0, 901.0, 901.0, 902.0, 901.0, 901.0, 901.0, 901.0, 902.0, 902.0, 901.0, 901.0, 901.0, 902.0, 902.0, 901.0, 902.0, 902.0, 902.0, 902.0, 902.0, 902.0, 901.0, 901.0, 902.0, 903.0, 901.0, 901.0, 902.0, 902.0, 901.0, 902.0, 902.0, 902.0, 902.0, 902.0, 902.0, 901.0, 902.0, 903.0, 902.0, 902.0, 902.0, 902.0, 901.0, 902.0, 902.0, 902.0, 902.0, 904.0, 902.0, 902.0, 902.0, 902.0, 902.0, 902.0, 902.0, 902.0, 902.0, 903.0, 902.0, 902.0, 902.0, 902.0, 901.0, 902.0, 902.0, 901.0, 901.0, 902.0, 902.0, 902.0, 902.0, 902.0, 903.0, 902.0, 902.0, 902.0, 903.0, 903.0, 903.0, 902.0, 903.0, 903.0, 902.0, 902.0, 903.0, 903.0, 902.0, 902.0, 903.0, 903.0, 902.0, 903.0, 904.0, 903.0, 902.0, 903.0, 903.0, 902.0, 903.0, 903.0, 903.0, 902.0, 903.0, 904.0, 903.0, 902.0, 902.0, 903.0, 903.0, 902.0, 902.0, 903.0, 903.0, 903.0, 903.0, 903.0, 902.0, 903.0, 902.0, 902.0, 902.0, 902.0, 903.0, 902.0, 903.0, 904.0, 903.0, 902.0, 902.0, 904.0, 903.0, 903.0, 904.0, 903.0, 903.0, 903.0, 903.0, 903.0, 903.0, 903.0, 903.0, 903.0, 903.0, 902.0, 904.0, 904.0, 903.0, 904.0, 905.0, 904.0, 902.0, 903.0, 903.0, 903.0, 903.0, 903.0, 904.0, 903.0, 903.0, 904.0, 903.0, 903.0, 904.0, 904.0, 902.0, 903.0, 904.0, 904.0, 904.0],
      "WindowWidth": [2112.0, 2111.0, 2110.0, 2107.0, 2107.0, 2106.0, 2107.0, 2112.0, 2110.0, 2109.0, 2107.0, 2110.0, 2108.0, 2106.0, 2109.0, 2107.0, 2106.0, 2108.0, 2111.0, 2105.0, 2111.0, 2112.0, 2106.0, 2109.0, 2109.0, 2106.0, 2105.0, 2109.0, 2109.0, 2106.0, 2107.0, 2108.0, 2110.0, 2107.0, 2108.0, 2112.0, 2106.0, 2107.0, 2105.0, 2106.0, 2108.0, 2109.0, 2110.0, 2109.0, 2108.0, 2108.0, 2108.0, 2113.0, 2110.0, 2109.0, 2110.0, 2106.0, 2108.0, 2107.0, 2111.0, 2107.0, 2108.0, 2108.0, 2110.0, 2111.0, 2109.0, 2108.0, 2110.0, 2109.0, 2111.0, 2112.0, 2108.0, 2111.0, 2110.0, 2109.0, 2112.0, 2111.0, 2110.0, 2106.0, 2107.0, 2112.0, 2115.0, 2108.0, 2107.0, 2111.0, 2111.0, 2109.0, 2112.0, 2112.0, 2111.0, 2110.0, 2110.0, 2110.0, 2109.0, 2112.0, 2113.0, 2112.0, 2112.0, 2110.0, 2109.0, 2110.0, 2111.0, 2112.0, 2111.0, 2111.0, 2117.0, 2112.0, 2111.0, 2113.0, 2110.0, 2109.0, 2113.0, 2112.0, 2109.0, 2110.0, 2114.0, 2111.0, 2110.0, 2112.0, 2113.0, 2109.0, 2113.0, 2112.0, 2107.0, 2108.0, 2111.0, 2113.0, 2112.0, 2110.0, 2112.0, 2114.0, 2111.0, 2111.0, 2112.0, 2113.0, 2114.0, 2113.0, 2111.0, 2116.0, 2114.0, 2111.0, 2112.0, 2115.0, 2115.0, 2111.0, 2112.0, 2115.0, 2114.0, 2112.0, 2117.0, 2117.0, 2115.0, 2113.0, 2114.0, 2114.0, 2110.0, 2114.0, 2115.0, 2115.0, 2113.0, 2116.0, 2117.0, 2113.0, 2111.0, 2109.0, 2114.0, 2115.0, 2110.0, 2112.0, 2116.0, 2116.0, 2113.0, 2113.0, 2114.0, 2111.0, 2113.0, 2111.0, 2112.0, 2112.0, 2113.0, 2114.0, 2109.0, 2115.0, 2119.0, 2113.0, 2111.0, 2114.0, 2117.0, 2112.0, 2114.0, 2119.0, 2114.0, 2114.0, 2114.0, 2112.0, 2113.0, 2115.0, 2116.0, 2111.0, 2114.0, 2113.0, 2112.0, 2119.0, 2117.0, 2114.0, 2118.0, 2121.0, 2117.0, 2113.0, 2117.0, 2113.0, 2114.0, 2114.0, 2117.0, 2117.0, 2112.0, 2116.0, 2118.0, 2115.0, 2115.0, 2119.0, 2118.0, 2113.0, 2117.0, 2117.0, 2118.0, 2118.0]
    },
    "slices": {}
  }
}