{
  "AcquisitionMatrixPE": 188,
  "AcquisitionNumber": 1,
  "AcquisitionTime": "17:19:4.182500",
  "BandwidthPerPixelPhaseEncode": 19.46,
  "BaseResolution": 188,
  "ConversionSoftware": "dcm2niix",
  "ConversionSoftwareVersion": "v1.0.20180606 GCC4.8.5",
  "DelayTime": 1.2,
  "DerivedVendorReportedEchoSpacing": 0.000820013,
  "DeviceSerialNumber": "18930",
  "DwellTime": 1.9e-06,
  "EchoTime": 0.02,
  "EffectiveEchoSpacing": 0.000273338,
  "FlipAngle": 80,
  "ImageComments": "Unaliased_MB2_PE2",
  "ImageOrientationPatientDICOM": [0.99873, -0.0209762, -0.0458177, -0.0417013, 0.166389, -0.985178],
  "ImageType": [
    "ORIGINAL",
    "PRIMARY",
    "M",
    "MB",
    "ND",
    "MOSAIC"
],
  "InPlanePhaseEncodingDirectionDICOM": "COL",
  "InstitutionAddress": "Oxfordlaan_55_Maastricht_Limburg_NL_6229_EV",
  "InstitutionName": "Scannexus",
  "InstitutionalDepartmentName": "MRI_7T",
  "MRAcquisitionType": "2D",
  "MagneticFieldStrength": 6.98,
  "Manufacturer": "Siemens",
  "ManufacturersModelName": "Investigational_Device_7T",
  "Modality": "MR",
  "MultibandAccelerationFactor": 2,
  "ParallelReductionFactorInPlane": 3,
  "PartialFourier": 0.75,
  "PatientPosition": "HFS",
  "PercentPhaseFOV": 100,
  "PhaseEncodingDirection": "j",
  "PhaseEncodingSteps": 141,
  "PhaseResolution": 1,
  "PixelBandwidth": 1400,
  "ProcedureStepDescription": "FeDem_fMRI",
  "ProtocolName": "cmrr_mbep2d_bold_AP_run6",
  "PulseSequenceDetails": "%CustomerSeq%_cmrr_mbep2d_bold",
  "ReceiveCoilName": "32Ch_Head_7T",
  "ReconMatrixPE": 188,
  "RepetitionTime": 2.6,
  "SAR": 0.0665542,
  "ScanOptions": "PFP_FS",
  "ScanningSequence": "EP",
  "SequenceName": "epfid2d1_188",
  "SequenceVariant": "SK_SS",
  "SeriesDescription": "cmrr_mbep2d_bold_AP_run6",
  "SeriesNumber": 15,
  "ShimSetting": [75, -68, 516, 356, -152, 330, 13, 99],
  "SliceThickness": 1.1,
  "SliceTiming": [0, 0.7325, 0.06, 0.795, 0.1225, 0.855, 0.1825, 0.915, 0.245, 0.9775, 0.305, 1.0375, 0.365, 1.1, 0.4275, 1.16, 0.4875, 1.2225, 0.55, 1.2825, 0.61, 1.345, 0.6725, 0, 0.7325, 0.06, 0.795, 0.1225, 0.855, 0.1825, 0.915, 0.245, 0.9775, 0.305, 1.0375, 0.365, 1.1, 0.4275, 1.16, 0.4875, 1.2225, 0.55, 1.2825, 0.61, 1.345, 0.6725],
  "SoftwareVersions": "syngo_MR_B17",
  "SpacingBetweenSlices": 1.1,
  "StationName": "MRC18930",
  "TaskName": "auditory",
  "TotalReadoutTime": 0.0511141,
  "TxRefAmp": 270,
  "dcmmeta_affine": [
    [-1.0943526029586792, -0.0456940121948719, -0.031117737293243408, 103.79369354248047],
    [0.02298455312848091, 0.18232011795043945, -1.0844208002090454, 26.801244735717773],
    [-0.05020447447896004, 1.0795035362243652, 0.181833416223526, -112.86929321289062],
    [0.0, 0.0, 0.0, 1.0]
],
  "dcmmeta_reorient_transform": [
    [0.0, -1.0, 0.0, 187.0],
    [1.0, 0.0, 0.0, 0.0],
    [0.0, 0.0, 1.0, 0.0],
    [0.0, 0.0, 0.0, 1.0]
],
  "dcmmeta_shape": [188, 188, 46, 223],
  "dcmmeta_slice_dim": 2,
  "dcmmeta_version": 0.6,
  "global": {
    "const": {
      "AcquisitionMatrix": [188, 0, 0, 188],
      "AngioFlag": "N",
      "BitsAllocated": 16,
      "BitsStored": 12,
      "Columns": 1316,
      "EchoNumbers": 1,
      "EchoTime": 20.0,
      "EchoTrainLength": 1,
      "FlipAngle": 80.0,
      "HighBit": 11,
      "ImageOrientationPatient": [0.99872956303179, -0.0209761932897, -0.0458176738978, -0.04170132903, 0.16638922913757, -0.9851779654378],
      "ImagePositionPatient": [-686.69239106777, -150.76036784943, 726.15320939321],
      "ImageType": [
        "ORIGINAL",
        "PRIMARY",
        "M",
        "MB",
        "ND",
        "MOSAIC"
],
      "ImagedNucleus": "1H",
      "ImagingFrequency": 297.205532,
      "InPlanePhaseEncodingDirection": "COL",
      "LargestImagePixelValue": 4095,
      "MRAcquisitionType": "2D",
      "MagneticFieldStrength": 6.98,
      "Manufacturer": "SIEMENS",
      "ManufacturerModelName": "Investigational_Device_7T",
      "Modality": "MR",
      "NumberOfAverages": 1.0,
      "NumberOfPhaseEncodingSteps": 141,
      "PercentPhaseFieldOfView": 100.0,
      "PercentSampling": 100.0,
      "PerformedProcedureStepStartTime": "154854.125000",
      "PhotometricInterpretation": "MONOCHROME2",
      "PixelBandwidth": 1400.0,
      "PixelRepresentation": 0,
      "PixelSpacing": [1.0957447290421, 1.0957447290421],
      "ProtocolName": "cmrr_mbep2d_bold_AP_run6",
      "RepetitionTime": 2600.0,
      "Rows": 1316,
      "SAR": 0.06655420189645,
      "SamplesPerPixel": 1,
      "ScanOptions": [
        "PFP",
        "FS"
],
      "ScanningSequence": "EP",
      "SequenceName": "epfid2d1_188",
      "SequenceVariant": [
        "SK",
        "SS"
],
      "SeriesDescription": "cmrr_mbep2d_bold_AP_run6",
      "SeriesNumber": 15,
      "SeriesTime": "172003.375000",
      "SliceLocation": -48.015508289431,
      "SliceThickness": 1.1000000238419,
      "SmallestImagePixelValue": 0,
      "SoftwareVersions": "syngo MR B17",
      "SpacingBetweenSlices": 1.1000000276729,
      "SpecificCharacterSet": "ISO_IR 100",
      "StudyID": "1",
      "StudyTime": "154854.078000",
      "TransmitCoilName": "32Ch_Head_7T",
      "VariableFlipAngleFlag": "N",
      "WindowCenterWidthExplanation": "Algo1",
      "dBdt": 0.0},
    "slices": {}
  },
  "time": {
    "samples": {
      "AcquisitionNumber": [1, 2, 3, 4, 5, 6, 7, 8, 9, 10, 11, 12, 13, 14, 15, 16, 17, 18, 19, 20, 21, 22, 23, 24, 25, 26, 27, 28, 29, 30, 31, 32, 33, 34, 35, 36, 37, 38, 39, 40, 41, 42, 43, 44, 45, 46, 47, 48, 49, 50, 51, 52, 53, 54, 55, 56, 57, 58, 59, 60, 61, 62, 63, 64, 65, 66, 67, 68, 69, 70, 71, 72, 73, 74, 75, 76, 77, 78, 79, 80, 81, 82, 83, 84, 85, 86, 87, 88, 89, 90, 91, 92, 93, 94, 95, 96, 97, 98, 99, 100, 101, 102, 103, 104, 105, 106, 107, 108, 109, 110, 111, 112, 113, 114, 115, 116, 117, 118, 119, 120, 121, 122, 123, 124, 125, 126, 127, 128, 129, 130, 131, 132, 133, 134, 135, 136, 137, 138, 139, 140, 141, 142, 143, 144, 145, 146, 147, 148, 149, 150, 151, 152, 153, 154, 155, 156, 157, 158, 159, 160, 161, 162, 163, 164, 165, 166, 167, 168, 169, 170, 171, 172, 173, 174, 175, 176, 177, 178, 179, 180, 181, 182, 183, 184, 185, 186, 187, 188, 189, 190, 191, 192, 193, 194, 195, 196, 197, 198, 199, 200, 201, 202, 203, 204, 205, 206, 207, 208, 209, 210, 211, 212, 213, 214, 215, 216, 217, 218, 219, 220, 221, 222, 223],
      "AcquisitionTime": ["171904.182500", "171906.792500", "171909.402500", "171912.012500", "171914.625000", "171917.235000", "171919.845000", "171922.455000", "171925.065000", "171927.675000", "171930.287500", "171932.897500", "171935.507500", "171938.117500", "171940.727500", "171943.337500", "171945.950000", "171948.560000", "171951.170000", "171953.780000", "171956.390000", "171959.002500", "172001.612500", "172004.222500", "172006.832500", "172009.442500", "172012.052500", "172014.665000", "172017.275000", "172019.885000", "172022.495000", "172025.105000", "172027.715000", "172030.327500", "172032.937500", "172035.547500", "172038.157500", "172040.767500", "172043.380000", "172045.990000", "172048.600000", "172051.210000", "172053.820000", "172056.430000", "172059.042500", "172101.652500", "172104.262500", "172106.872500", "172109.482500", "172112.092500", "172114.705000", "172117.315000", "172119.925000", "172122.535000", "172125.145000", "172127.757500", "172130.367500", "172132.977500", "172135.587500", "172138.197500", "172140.807500", "172143.420000", "172146.030000", "172148.640000", "172151.250000", "172153.860000", "172156.470000", "172159.082500", "172201.692500", "172204.302500", "172206.912500", "172209.522500", "172212.135000", "172214.745000", "172217.355000", "172219.965000", "172222.575000", "172225.185000", "172227.797500", "172230.407500", "172233.017500", "172235.627500", "172238.237500", "172240.850000", "172243.460000", "172246.070000", "172248.680000", "172251.290000", "172253.900000", "172256.512500", "172259.122500", "172301.732500", "172304.342500", "172306.952500", "172309.562500", "172312.175000", "172314.785000", "172317.395000", "172320.005000", "172322.615000", "172325.227500", "172327.837500", "172330.447500", "172333.057500", "172335.667500", "172338.277500", "172340.890000", "172343.500000", "172346.110000", "172348.720000", "172351.330000", "172353.940000", "172356.552500", "172359.162500", "172401.772500", "172404.382500", "172406.992500", "172409.605000", "172412.215000", "172414.825000", "172417.435000", "172420.045000", "172422.655000", "172425.267500", "172427.877500", "172430.487500", "172433.097500", "172435.707500", "172438.317500", "172440.930000", "172443.540000", "172446.150000", "172448.760000", "172451.370000", "172453.982500", "172456.592500", "172459.202500", "172501.812500", "172504.422500", "172507.032500", "172509.645000", "172512.255000", "172514.865000", "172517.475000", "172520.085000", "172522.695000", "172525.307500", "172527.917500", "172530.527500", "172533.137500", "172535.747500", "172538.360000", "172540.970000", "172543.580000", "172546.190000", "172548.800000", "172551.410000", "172554.022500", "172556.632500", "172559.242500", "172601.852500", "172604.462500", "172607.072500", "172609.685000", "172612.295000", "172614.905000", "172617.515000", "172620.125000", "172622.737500", "172625.347500", "172627.957500", "172630.567500", "172633.177500", "172635.787500", "172638.400000", "172641.010000", "172643.620000", "172646.230000", "172648.840000", "172651.450000", "172654.062500", "172656.672500", "172659.282500", "172701.892500", "172704.502500", "172707.115000", "172709.725000", "172712.335000", "172714.945000", "172717.555000", "172720.165000", "172722.777500", "172725.387500", "172727.997500", "172730.607500", "172733.217500", "172735.827500", "172738.440000", "172741.050000", "172743.660000", "172746.270000", "172748.880000", "172751.492500", "172754.102500", "172756.712500", "172759.322500", "172801.932500", "172804.542500", "172807.155000", "172809.765000", "172812.375000", "172814.985000", "172817.595000", "172820.205000", "172822.817500", "172825.427500", "172828.037500", "172830.647500", "172833.257500", "172835.870000", "172838.480000", "172841.090000", "172843.700000"],
      "ContentTime": ["172003.375000", "172003.390000", "172003.390000", "172003.406000", "172003.406000", "172003.406000", "172003.406000", "172003.406000", "172003.406000", "172003.406000", "172003.406000", "172003.421000", "172003.421000", "172003.421000", "172003.421000", "172003.421000", "172003.421000", "172003.421000", "172003.437000", "172003.437000", "172003.437000", "172003.437000", "172103.375000", "172103.375000", "172103.390000", "172103.390000", "172103.390000", "172103.406000", "172103.406000", "172103.406000", "172103.406000", "172103.406000", "172103.406000", "172103.406000", "172103.421000", "172103.421000", "172103.421000", "172103.421000", "172103.421000", "172103.437000", "172103.437000", "172103.437000", "172103.437000", "172103.437000", "172103.437000", "172203.375000", "172203.375000", "172203.375000", "172203.375000", "172203.390000", "172203.390000", "172203.390000", "172203.390000", "172203.406000", "172203.406000", "172203.406000", "172203.406000", "172203.406000", "172203.406000", "172203.421000", "172203.421000", "172203.421000", "172203.421000", "172203.421000", "172203.421000", "172203.437000", "172203.437000", "172203.437000", "172303.375000", "172303.375000", "172303.375000", "172303.375000", "172303.390000", "172303.390000", "172303.390000", "172303.406000", "172303.406000", "172303.406000", "172303.406000", "172303.406000", "172303.406000", "172303.421000", "172303.421000", "172303.421000", "172303.421000", "172303.421000", "172303.421000", "172303.421000", "172303.421000", "172303.437000", "172303.437000", "172403.375000", "172403.375000", "172403.375000", "172403.375000", "172403.390000", "172403.390000", "172403.390000", "172403.390000", "172403.390000", "172403.390000", "172403.390000", "172403.406000", "172403.406000", "172403.406000", "172403.406000", "172403.406000", "172403.406000", "172403.406000", "172403.406000", "172403.421000", "172403.421000", "172403.421000", "172403.421000", "172503.375000", "172503.375000", "172503.375000", "172503.375000", "172503.390000", "172503.390000", "172503.390000", "172503.406000", "172503.406000", "172503.406000", "172503.406000", "172503.421000", "172503.421000", "172503.421000", "172503.421000", "172503.421000", "172503.421000", "172503.421000", "172503.437000", "172503.437000", "172503.437000", "172503.437000", "172503.437000", "172603.375000", "172603.375000", "172603.375000", "172603.375000", "172603.390000", "172603.390000", "172603.390000", "172603.390000", "172603.390000", "172603.390000", "172603.390000", "172603.406000", "172603.406000", "172603.406000", "172603.406000", "172603.406000", "172603.406000", "172603.406000", "172603.406000", "172603.421000", "172603.421000", "172603.421000", "172603.421000", "172703.375000", "172703.375000", "172703.375000", "172703.375000", "172703.390000", "172703.390000", "172703.390000", "172703.390000", "172703.390000", "172703.390000", "172703.390000", "172703.406000", "172703.406000", "172703.406000", "172703.406000", "172703.406000", "172703.406000", "172703.406000", "172703.406000", "172703.421000", "172703.421000", "172703.421000", "172703.421000", "172723.375000", "172723.375000", "172723.375000", "172723.375000", "172723.390000", "172723.406000", "172723.406000", "172723.406000", "172823.375000", "172823.390000", "172823.390000", "172823.390000", "172823.390000", "172823.390000", "172823.390000", "172823.406000", "172823.406000", "172823.406000", "172823.406000", "172823.406000", "172823.406000", "172823.406000", "172823.421000", "172823.421000", "172823.421000", "172823.421000", "172823.421000", "172823.421000", "172823.421000", "172823.437000", "172823.437000", "172850.640000", "172850.640000", "172850.656000", "172850.656000", "172850.656000", "172850.656000", "172850.671000", "172850.671000", "172850.671000"],
      "InstanceCreationTime": ["172003.375000", "172003.390000", "172003.390000", "172003.406000", "172003.406000", "172003.406000", "172003.406000", "172003.406000", "172003.406000", "172003.406000", "172003.406000", "172003.421000", "172003.421000", "172003.421000", "172003.421000", "172003.421000", "172003.421000", "172003.421000", "172003.437000", "172003.437000", "172003.437000", "172003.437000", "172103.375000", "172103.375000", "172103.390000", "172103.390000", "172103.390000", "172103.406000", "172103.406000", "172103.406000", "172103.406000", "172103.406000", "172103.406000", "172103.406000", "172103.421000", "172103.421000", "172103.421000", "172103.421000", "172103.421000", "172103.437000", "172103.437000", "172103.437000", "172103.437000", "172103.437000", "172103.437000", "172203.375000", "172203.375000", "172203.375000", "172203.375000", "172203.390000", "172203.390000", "172203.390000", "172203.390000", "172203.406000", "172203.406000", "172203.406000", "172203.406000", "172203.406000", "172203.406000", "172203.421000", "172203.421000", "172203.421000", "172203.421000", "172203.421000", "172203.421000", "172203.437000", "172203.437000", "172203.437000", "172303.375000", "172303.375000", "172303.375000", "172303.375000", "172303.390000", "172303.390000", "172303.390000", "172303.406000", "172303.406000", "172303.406000", "172303.406000", "172303.406000", "172303.406000", "172303.421000", "172303.421000", "172303.421000", "172303.421000", "172303.421000", "172303.421000", "172303.421000", "172303.421000", "172303.437000", "172303.437000", "172403.375000", "172403.375000", "172403.375000", "172403.375000", "172403.390000", "172403.390000", "172403.390000", "172403.390000", "172403.390000", "172403.390000", "172403.390000", "172403.406000", "172403.406000", "172403.406000", "172403.406000", "172403.406000", "172403.406000", "172403.406000", "172403.406000", "172403.421000", "172403.421000", "172403.421000", "172403.421000", "172503.375000", "172503.375000", "172503.375000", "172503.375000", "172503.390000", "172503.390000", "172503.390000", "172503.406000", "172503.406000", "172503.406000", "172503.406000", "172503.421000", "172503.421000", "172503.421000", "172503.421000", "172503.421000", "172503.421000", "172503.421000", "172503.437000", "172503.437000", "172503.437000", "172503.437000", "172503.437000", "172603.375000", "172603.375000", "172603.375000", "172603.375000", "172603.390000", "172603.390000", "172603.390000", "172603.390000", "172603.390000", "172603.390000", "172603.390000", "172603.406000", "172603.406000", "172603.406000", "172603.406000", "172603.406000", "172603.406000", "172603.406000", "172603.406000", "172603.421000", "172603.421000", "172603.421000", "172603.421000", "172703.375000", "172703.375000", "172703.375000", "172703.375000", "172703.390000", "172703.390000", "172703.390000", "172703.390000", "172703.390000", "172703.390000", "172703.390000", "172703.406000", "172703.406000", "172703.406000", "172703.406000", "172703.406000", "172703.406000", "172703.406000", "172703.406000", "172703.421000", "172703.421000", "172703.421000", "172703.421000", "172723.375000", "172723.375000", "172723.375000", "172723.375000", "172723.390000", "172723.406000", "172723.406000", "172723.406000", "172823.375000", "172823.390000", "172823.390000", "172823.390000", "172823.390000", "172823.390000", "172823.390000", "172823.406000", "172823.406000", "172823.406000", "172823.406000", "172823.406000", "172823.406000", "172823.406000", "172823.421000", "172823.421000", "172823.421000", "172823.421000", "172823.421000", "172823.421000", "172823.421000", "172823.437000", "172823.437000", "172850.640000", "172850.640000", "172850.656000", "172850.656000", "172850.656000", "172850.656000", "172850.671000", "172850.671000", "172850.671000"],
      "InstanceNumber": [1, 2, 3, 4, 5, 6, 7, 8, 9, 10, 11, 12, 13, 14, 15, 16, 17, 18, 19, 20, 21, 22, 23, 24, 25, 26, 27, 28, 29, 30, 31, 32, 33, 34, 35, 36, 37, 38, 39, 40, 41, 42, 43, 44, 45, 46, 47, 48, 49, 50, 51, 52, 53, 54, 55, 56, 57, 58, 59, 60, 61, 62, 63, 64, 65, 66, 67, 68, 69, 70, 71, 72, 73, 74, 75, 76, 77, 78, 79, 80, 81, 82, 83, 84, 85, 86, 87, 88, 89, 90, 91, 92, 93, 94, 95, 96, 97, 98, 99, 100, 101, 102, 103, 104, 105, 106, 107, 108, 109, 110, 111, 112, 113, 114, 115, 116, 117, 118, 119, 120, 121, 122, 123, 124, 125, 126, 127, 128, 129, 130, 131, 132, 133, 134, 135, 136, 137, 138, 139, 140, 141, 142, 143, 144, 145, 146, 147, 148, 149, 150, 151, 152, 153, 154, 155, 156, 157, 158, 159, 160, 161, 162, 163, 164, 165, 166, 167, 168, 169, 170, 171, 172, 173, 174, 175, 176, 177, 178, 179, 180, 181, 182, 183, 184, 185, 186, 187, 188, 189, 190, 191, 192, 193, 194, 195, 196, 197, 198, 199, 200, 201, 202, 203, 204, 205, 206, 207, 208, 209, 210, 211, 212, 213, 214, 215, 216, 217, 218, 219, 220, 221, 222, 223],
      "WindowCenter": [903.0, 902.0, 901.0, 903.0, 902.0, 900.0, 900.0, 901.0, 901.0, 901.0, 903.0, 902.0, 901.0, 902.0, 901.0, 900.0, 901.0, 901.0, 901.0, 902.0, 901.0, 901.0, 901.0, 900.0, 900.0, 901.0, 901.0, 900.0, 900.0, 901.0, 901.0, 902.0, 901.0, 902.0, 902.0, 903.0, 902.0, 902.0, 901.0, 900.0, 901.0, 902.0, 901.0, 899.0, 901.0, 901.0, 902.0, 902.0, 902.0, 903.0, 903.0, 901.0, 901.0, 902.0, 901.0, 900.0, 900.0, 901.0, 901.0, 900.0, 901.0, 901.0, 901.0, 902.0, 902.0, 901.0, 901.0, 902.0, 901.0, 902.0, 904.0, 902.0, 903.0, 903.0, 902.0, 900.0, 902.0, 901.0, 900.0, 901.0, 901.0, 902.0, 902.0, 902.0, 902.0, 902.0, 902.0, 902.0, 902.0, 901.0, 903.0, 903.0, 903.0, 904.0, 905.0, 904.0, 904.0, 902.0, 901.0, 901.0, 901.0, 901.0, 901.0, 902.0, 904.0, 903.0, 901.0, 901.0, 902.0, 902.0, 901.0, 901.0, 901.0, 903.0, 902.0, 901.0, 901.0, 902.0, 903.0, 902.0, 902.0, 903.0, 901.0, 902.0, 903.0, 904.0, 902.0, 902.0, 902.0, 903.0, 902.0, 902.0, 902.0, 902.0, 902.0, 902.0, 902.0, 903.0, 903.0, 902.0, 903.0, 903.0, 903.0, 903.0, 902.0, 902.0, 903.0, 903.0, 902.0, 902.0, 903.0, 903.0, 904.0, 904.0, 902.0, 902.0, 903.0, 902.0, 902.0, 902.0, 902.0, 902.0, 902.0, 902.0, 902.0, 903.0, 904.0, 903.0, 903.0, 903.0, 904.0, 903.0, 903.0, 903.0, 903.0, 903.0, 904.0, 904.0, 905.0, 904.0, 903.0, 902.0, 902.0, 901.0, 903.0, 903.0, 902.0, 901.0, 903.0, 903.0, 904.0, 903.0, 903.0, 903.0, 903.0, 902.0, 903.0, 903.0, 903.0, 903.0, 905.0, 905.0, 903.0, 902.0, 902.0, 902.0, 902.0, 902.0, 902.0, 902.0, 905.0, 903.0, 901.0, 902.0, 902.0, 903.0, 903.0, 902.0, 902.0, 903.0, 903.0, 903.0, 904.0],
      "WindowWidth": [2114.0, 2112.0, 2109.0, 2117.0, 2111.0, 2105.0, 2104.0, 2111.0, 2108.0, 2111.0, 2118.0, 2110.0, 2109.0, 2112.0, 2110.0, 2106.0, 2108.0, 2109.0, 2108.0, 2110.0, 2109.0, 2108.0, 2109.0, 2107.0, 2107.0, 2109.0, 2109.0, 2107.0, 2106.0, 2108.0, 2110.0, 2112.0, 2110.0, 2112.0, 2114.0, 2116.0, 2114.0, 2115.0, 2109.0, 2106.0, 2110.0, 2109.0, 2106.0, 2102.0, 2107.0, 2108.0, 2110.0, 2111.0, 2111.0, 2116.0, 2117.0, 2108.0, 2110.0, 2114.0, 2107.0, 2102.0, 2104.0, 2109.0, 2108.0, 2106.0, 2107.0, 2109.0, 2108.0, 2111.0, 2111.0, 2109.0, 2110.0, 2112.0, 2109.0, 2113.0, 2122.0, 2115.0, 2119.0, 2114.0, 2113.0, 2107.0, 2111.0, 2106.0, 2105.0, 2107.0, 2108.0, 2110.0, 2112.0, 2112.0, 2111.0, 2113.0, 2112.0, 2113.0, 2112.0, 2109.0, 2115.0, 2116.0, 2117.0, 2120.0, 2125.0, 2119.0, 2120.0, 2111.0, 2107.0, 2105.0, 2105.0, 2107.0, 2107.0, 2116.0, 2119.0, 2117.0, 2108.0, 2108.0, 2114.0, 2114.0, 2110.0, 2108.0, 2108.0, 2115.0, 2111.0, 2108.0, 2110.0, 2112.0, 2114.0, 2111.0, 2112.0, 2115.0, 2110.0, 2110.0, 2118.0, 2119.0, 2110.0, 2112.0, 2111.0, 2115.0, 2113.0, 2113.0, 2112.0, 2112.0, 2112.0, 2113.0, 2113.0, 2115.0, 2115.0, 2112.0, 2115.0, 2117.0, 2118.0, 2116.0, 2113.0, 2113.0, 2115.0, 2114.0, 2110.0, 2112.0, 2115.0, 2117.0, 2120.0, 2119.0, 2111.0, 2111.0, 2115.0, 2112.0, 2111.0, 2110.0, 2110.0, 2112.0, 2112.0, 2112.0, 2113.0, 2116.0, 2117.0, 2113.0, 2114.0, 2116.0, 2117.0, 2114.0, 2116.0, 2114.0, 2114.0, 2117.0, 2121.0, 2122.0, 2125.0, 2121.0, 2114.0, 2111.0, 2112.0, 2109.0, 2117.0, 2117.0, 2111.0, 2110.0, 2117.0, 2117.0, 2118.0, 2116.0, 2117.0, 2115.0, 2115.0, 2113.0, 2115.0, 2118.0, 2115.0, 2116.0, 2123.0, 2126.0, 2115.0, 2111.0, 2110.0, 2111.0, 2112.0, 2111.0, 2110.0, 2115.0, 2126.0, 2116.0, 2109.0, 2110.0, 2113.0, 2119.0, 2114.0, 2112.0, 2113.0, 2115.0, 2113.0, 2118.0, 2120.0]
    },
    "slices": {}
  }
}