{
  "AcquisitionMatrixPE": 188,
  "AcquisitionNumber": 1,
  "AcquisitionTime": "17:07:53.165000",
  "BandwidthPerPixelPhaseEncode": 19.46,
  "BaseResolution": 188,
  "ConversionSoftware": "dcm2niix",
  "ConversionSoftwareVersion": "v1.0.20180606 GCC4.8.5",
  "DelayTime": 1.2,
  "DerivedVendorReportedEchoSpacing": 0.000820013,
  "DeviceSerialNumber": "18930",
  "DwellTime": 1.9e-06,
  "EchoTime": 0.02,
  "EffectiveEchoSpacing": 0.000273338,
  "FlipAngle": 80,
  "ImageComments": "Unaliased_MB2_PE2",
  "ImageOrientationPatientDICOM": [0.99873, -0.0209762, -0.0458177, -0.0417013, 0.166389, -0.985178],
  "ImageType": [
    "ORIGINAL",
    "PRIMARY",
    "M",
    "MB",
    "ND",
    "MOSAIC"
],
  "InPlanePhaseEncodingDirectionDICOM": "COL",
  "InstitutionAddress": "Oxfordlaan_55_Maastricht_Limburg_NL_6229_EV",
  "InstitutionName": "Scannexus",
  "InstitutionalDepartmentName": "MRI_7T",
  "MRAcquisitionType": "2D",
  "MagneticFieldStrength": 6.98,
  "Manufacturer": "Siemens",
  "ManufacturersModelName": "Investigational_Device_7T",
  "Modality": "MR",
  "MultibandAccelerationFactor": 2,
  "ParallelReductionFactorInPlane": 3,
  "PartialFourier": 0.75,
  "PatientPosition": "HFS",
  "PercentPhaseFOV": 100,
  "PhaseEncodingDirection": "j",
  "PhaseEncodingSteps": 141,
  "PhaseResolution": 1,
  "PixelBandwidth": 1400,
  "ProcedureStepDescription": "FeDem_fMRI",
  "ProtocolName": "cmrr_mbep2d_bold_AP_run5",
  "PulseSequenceDetails": "%CustomerSeq%_cmrr_mbep2d_bold",
  "ReceiveCoilName": "32Ch_Head_7T",
  "ReconMatrixPE": 188,
  "RepetitionTime": 2.6,
  "SAR": 0.0663187,
  "ScanOptions": "PFP_FS",
  "ScanningSequence": "EP",
  "SequenceName": "epfid2d1_188",
  "SequenceVariant": "SK_SS",
  "SeriesDescription": "cmrr_mbep2d_bold_AP_run5",
  "SeriesNumber": 14,
  "ShimSetting": [75, -68, 516, 356, -152, 330, 13, 99],
  "SliceThickness": 1.1,
  "SliceTiming": [0, 0.735, 0.0625, 0.795, 0.1225, 0.8575, 0.185, 0.9175, 0.245, 0.9775, 0.3075, 1.04, 0.3675, 1.1, 0.4275, 1.1625, 0.49, 1.2225, 0.55, 1.285, 0.6125, 1.345, 0.6725, 0, 0.735, 0.0625, 0.795, 0.1225, 0.8575, 0.185, 0.9175, 0.245, 0.9775, 0.3075, 1.04, 0.3675, 1.1, 0.4275, 1.1625, 0.49, 1.2225, 0.55, 1.285, 0.6125, 1.345, 0.6725],
  "SoftwareVersions": "syngo_MR_B17",
  "SpacingBetweenSlices": 1.1,
  "StationName": "MRC18930",
  "TaskName": "auditory",
  "TotalReadoutTime": 0.0511141,
  "TxRefAmp": 270,
  "dcmmeta_affine": [
    [-1.0943526029586792, -0.0456940121948719, -0.031117737293243408, 103.79369354248047],
    [0.02298455312848091, 0.18232011795043945, -1.0844208002090454, 26.801244735717773],
    [-0.05020447447896004, 1.0795035362243652, 0.181833416223526, -112.86929321289062],
    [0.0, 0.0, 0.0, 1.0]
],
  "dcmmeta_reorient_transform": [
    [0.0, -1.0, 0.0, 187.0],
    [1.0, 0.0, 0.0, 0.0],
    [0.0, 0.0, 1.0, 0.0],
    [0.0, 0.0, 0.0, 1.0]
],
  "dcmmeta_shape": [188, 188, 46, 223],
  "dcmmeta_slice_dim": 2,
  "dcmmeta_version": 0.6,
  "global": {
    "const": {
      "AcquisitionMatrix": [188, 0, 0, 188],
      "AngioFlag": "N",
      "BitsAllocated": 16,
      "BitsStored": 12,
      "Columns": 1316,
      "EchoNumbers": 1,
      "EchoTime": 20.0,
      "EchoTrainLength": 1,
      "FlipAngle": 80.0,
      "HighBit": 11,
      "ImageOrientationPatient": [0.99872956303179, -0.0209761932897, -0.0458176738978, -0.04170132903, 0.16638922913757, -0.9851779654378],
      "ImagePositionPatient": [-686.69239106777, -150.76036784943, 726.15320939321],
      "ImageType": [
        "ORIGINAL",
        "PRIMARY",
        "M",
        "MB",
        "ND",
        "MOSAIC"
],
      "ImagedNucleus": "1H",
      "ImagingFrequency": 297.205528,
      "InPlanePhaseEncodingDirection": "COL",
      "LargestImagePixelValue": 4095,
      "MRAcquisitionType": "2D",
      "MagneticFieldStrength": 6.98,
      "Manufacturer": "SIEMENS",
      "ManufacturerModelName": "Investigational_Device_7T",
      "Modality": "MR",
      "NumberOfAverages": 1.0,
      "NumberOfPhaseEncodingSteps": 141,
      "PercentPhaseFieldOfView": 100.0,
      "PercentSampling": 100.0,
      "PerformedProcedureStepStartTime": "154854.125000",
      "PhotometricInterpretation": "MONOCHROME2",
      "PixelBandwidth": 1400.0,
      "PixelRepresentation": 0,
      "PixelSpacing": [1.0957447290421, 1.0957447290421],
      "ProtocolName": "cmrr_mbep2d_bold_AP_run5",
      "RepetitionTime": 2600.0,
      "Rows": 1316,
      "SAR": 0.06631872456436,
      "SamplesPerPixel": 1,
      "ScanOptions": [
        "PFP",
        "FS"
],
      "ScanningSequence": "EP",
      "SequenceName": "epfid2d1_188",
      "SequenceVariant": [
        "SK",
        "SS"
],
      "SeriesDescription": "cmrr_mbep2d_bold_AP_run5",
      "SeriesNumber": 14,
      "SeriesTime": "170904.578000",
      "SliceLocation": -48.015508289431,
      "SliceThickness": 1.1000000238419,
      "SmallestImagePixelValue": 0,
      "SoftwareVersions": "syngo MR B17",
      "SpacingBetweenSlices": 1.1000000276729,
      "SpecificCharacterSet": "ISO_IR 100",
      "StudyID": "1",
      "StudyTime": "154854.078000",
      "TransmitCoilName": "32Ch_Head_7T",
      "VariableFlipAngleFlag": "N",
      "WindowCenterWidthExplanation": "Algo1",
      "dBdt": 0.0},
    "slices": {}
  },
  "time": {
    "samples": {
      "AcquisitionNumber": [1, 2, 3, 4, 5, 6, 7, 8, 9, 10, 11, 12, 13, 14, 15, 16, 17, 18, 19, 20, 21, 22, 23, 24, 25, 26, 27, 28, 29, 30, 31, 32, 33, 34, 35, 36, 37, 38, 39, 40, 41, 42, 43, 44, 45, 46, 47, 48, 49, 50, 51, 52, 53, 54, 55, 56, 57, 58, 59, 60, 61, 62, 63, 64, 65, 66, 67, 68, 69, 70, 71, 72, 73, 74, 75, 76, 77, 78, 79, 80, 81, 82, 83, 84, 85, 86, 87, 88, 89, 90, 91, 92, 93, 94, 95, 96, 97, 98, 99, 100, 101, 102, 103, 104, 105, 106, 107, 108, 109, 110, 111, 112, 113, 114, 115, 116, 117, 118, 119, 120, 121, 122, 123, 124, 125, 126, 127, 128, 129, 130, 131, 132, 133, 134, 135, 136, 137, 138, 139, 140, 141, 142, 143, 144, 145, 146, 147, 148, 149, 150, 151, 152, 153, 154, 155, 156, 157, 158, 159, 160, 161, 162, 163, 164, 165, 166, 167, 168, 169, 170, 171, 172, 173, 174, 175, 176, 177, 178, 179, 180, 181, 182, 183, 184, 185, 186, 187, 188, 189, 190, 191, 192, 193, 194, 195, 196, 197, 198, 199, 200, 201, 202, 203, 204, 205, 206, 207, 208, 209, 210, 211, 212, 213, 214, 215, 216, 217, 218, 219, 220, 221, 222, 223],
      "AcquisitionTime": ["170753.165000", "170755.777500", "170758.387500", "170800.997500", "170803.607500", "170806.217500", "170808.827500", "170811.440000", "170814.050000", "170816.660000", "170819.270000", "170821.880000", "170824.490000", "170827.102500", "170829.712500", "170832.322500", "170834.932500", "170837.542500", "170840.155000", "170842.765000", "170845.375000", "170847.985000", "170850.595000", "170853.205000", "170855.817500", "170858.427500", "170901.037500", "170903.647500", "170906.257500", "170908.867500", "170911.480000", "170914.090000", "170916.700000", "170919.310000", "170921.920000", "170924.532500", "170927.142500", "170929.752500", "170932.362500", "170934.972500", "170937.582500", "170940.195000", "170942.805000", "170945.415000", "170948.025000", "170950.635000", "170953.245000", "170955.857500", "170958.467500", "171001.077500", "171003.687500", "171006.297500", "171008.910000", "171011.520000", "171014.130000", "171016.740000", "171019.350000", "171021.960000", "171024.572500", "171027.182500", "171029.792500", "171032.402500", "171035.012500", "171037.622500", "171040.235000", "171042.845000", "171045.455000", "171048.065000", "171050.675000", "171053.287500", "171055.897500", "171058.507500", "171101.117500", "171103.727500", "171106.337500", "171108.950000", "171111.560000", "171114.170000", "171116.780000", "171119.390000", "171122.000000", "171124.612500", "171127.222500", "171129.832500", "171132.442500", "171135.052500", "171137.665000", "171140.275000", "171142.885000", "171145.495000", "171148.105000", "171150.715000", "171153.327500", "171155.937500", "171158.547500", "171201.157500", "171203.767500", "171206.377500", "171208.990000", "171211.600000", "171214.210000", "171216.820000", "171219.430000", "171222.042500", "171224.652500", "171227.262500", "171229.872500", "171232.482500", "171235.092500", "171237.705000", "171240.315000", "171242.925000", "171245.535000", "171248.145000", "171250.755000", "171253.367500", "171255.977500", "171258.587500", "171301.197500", "171303.807500", "171306.420000", "171309.030000", "171311.640000", "171314.250000", "171316.860000", "171319.470000", "171322.082500", "171324.692500", "171327.302500", "171329.912500", "171332.522500", "171335.132500", "171337.745000", "171340.355000", "171342.965000", "171345.575000", "171348.185000", "171350.797500", "171353.407500", "171356.017500", "171358.627500", "171401.237500", "171403.847500", "171406.460000", "171409.070000", "171411.680000", "171414.290000", "171416.900000", "171419.510000", "171422.122500", "171424.732500", "171427.342500", "171429.952500", "171432.562500", "171435.175000", "171437.785000", "171440.395000", "171443.005000", "171445.615000", "171448.225000", "171450.837500", "171453.447500", "171456.057500", "171458.667500", "171501.277500", "171503.887500", "171506.500000", "171509.110000", "171511.720000", "171514.330000", "171516.940000", "171519.552500", "171522.162500", "171524.772500", "171527.382500", "171529.992500", "171532.602500", "171535.215000", "171537.825000", "171540.435000", "171543.045000", "171545.655000", "171548.265000", "171550.877500", "171553.487500", "171556.097500", "171558.707500", "171601.317500", "171603.930000", "171606.540000", "171609.150000", "171611.760000", "171614.370000", "171616.980000", "171619.592500", "171622.202500", "171624.812500", "171627.422500", "171630.032500", "171632.642500", "171635.255000", "171637.865000", "171640.475000", "171643.085000", "171645.695000", "171648.307500", "171650.917500", "171653.527500", "171656.137500", "171658.747500", "171701.357500", "171703.970000", "171706.580000", "171709.190000", "171711.800000", "171714.410000", "171717.022500", "171719.632500", "171722.242500", "171724.852500", "171727.462500", "171730.072500", "171732.685000"],
      "ContentTime": ["170904.578000", "170904.593000", "170904.593000", "170904.593000", "170904.609000", "170904.609000", "170904.609000", "170904.609000", "170904.609000", "170904.625000", "170904.625000", "170904.625000", "170904.625000", "170904.625000", "170904.625000", "170904.625000", "170904.640000", "170904.640000", "170904.640000", "170904.640000", "170904.656000", "170904.656000", "170904.656000", "170904.656000", "170904.656000", "170904.656000", "170904.656000", "171004.578000", "171004.578000", "171004.593000", "171004.593000", "171004.593000", "171004.593000", "171004.609000", "171004.609000", "171004.609000", "171004.609000", "171004.609000", "171004.609000", "171004.609000", "171004.609000", "171004.625000", "171004.625000", "171004.625000", "171004.625000", "171004.625000", "171004.640000", "171004.640000", "171004.640000", "171004.640000", "171104.578000", "171104.593000", "171104.593000", "171104.593000", "171104.593000", "171104.593000", "171104.609000", "171104.609000", "171104.609000", "171104.609000", "171104.609000", "171104.609000", "171104.609000", "171104.625000", "171104.625000", "171104.625000", "171104.625000", "171104.625000", "171104.625000", "171104.625000", "171104.640000", "171104.640000", "171104.640000", "171204.578000", "171204.578000", "171204.578000", "171204.593000", "171204.593000", "171204.593000", "171204.593000", "171204.593000", "171204.593000", "171204.593000", "171204.593000", "171204.609000", "171204.609000", "171204.609000", "171204.609000", "171204.625000", "171204.625000", "171204.625000", "171204.625000", "171204.640000", "171204.640000", "171204.640000", "171204.640000", "171304.578000", "171304.578000", "171304.578000", "171304.593000", "171304.593000", "171304.593000", "171304.593000", "171304.593000", "171304.593000", "171304.593000", "171304.593000", "171304.609000", "171304.609000", "171304.609000", "171304.609000", "171304.609000", "171304.609000", "171304.625000", "171304.625000", "171304.625000", "171304.625000", "171304.625000", "171304.625000", "171404.578000", "171404.578000", "171404.593000", "171404.593000", "171404.593000", "171404.593000", "171404.593000", "171404.593000", "171404.593000", "171404.593000", "171404.609000", "171404.609000", "171404.609000", "171404.609000", "171404.609000", "171404.625000", "171404.625000", "171404.625000", "171404.625000", "171404.625000", "171404.625000", "171404.640000", "171404.640000", "171504.578000", "171504.578000", "171504.578000", "171504.593000", "171504.593000", "171504.593000", "171504.593000", "171504.609000", "171504.609000", "171504.609000", "171504.609000", "171504.609000", "171504.609000", "171504.625000", "171504.625000", "171504.625000", "171504.625000", "171504.625000", "171504.625000", "171504.640000", "171504.640000", "171504.640000", "171504.640000", "171604.578000", "171604.578000", "171604.578000", "171604.593000", "171604.593000", "171604.593000", "171604.593000", "171604.593000", "171604.593000", "171604.593000", "171604.593000", "171604.609000", "171604.609000", "171604.609000", "171604.609000", "171604.609000", "171604.609000", "171604.609000", "171604.625000", "171604.625000", "171604.625000", "171604.625000", "171604.625000", "171704.578000", "171704.578000", "171704.578000", "171704.593000", "171704.593000", "171704.593000", "171704.609000", "171704.609000", "171704.609000", "171704.625000", "171704.625000", "171704.625000", "171704.625000", "171704.625000", "171704.625000", "171704.640000", "171704.640000", "171704.640000", "171704.640000", "171704.640000", "171704.640000", "171704.640000", "171704.656000", "171739.062000", "171739.062000", "171739.078000", "171739.078000", "171739.078000", "171739.078000", "171739.078000", "171739.078000", "171739.078000", "171739.093000", "171739.093000", "171739.093000"],
      "InstanceCreationTime": ["170904.578000", "170904.593000", "170904.593000", "170904.593000", "170904.609000", "170904.609000", "170904.609000", "170904.609000", "170904.609000", "170904.625000", "170904.625000", "170904.625000", "170904.625000", "170904.625000", "170904.625000", "170904.625000", "170904.640000", "170904.640000", "170904.640000", "170904.640000", "170904.656000", "170904.656000", "170904.656000", "170904.656000", "170904.656000", "170904.656000", "170904.656000", "171004.578000", "171004.578000", "171004.593000", "171004.593000", "171004.593000", "171004.593000", "171004.609000", "171004.609000", "171004.609000", "171004.609000", "171004.609000", "171004.609000", "171004.609000", "171004.609000", "171004.625000", "171004.625000", "171004.625000", "171004.625000", "171004.625000", "171004.640000", "171004.640000", "171004.640000", "171004.640000", "171104.578000", "171104.593000", "171104.593000", "171104.593000", "171104.593000", "171104.593000", "171104.609000", "171104.609000", "171104.609000", "171104.609000", "171104.609000", "171104.609000", "171104.609000", "171104.625000", "171104.625000", "171104.625000", "171104.625000", "171104.625000", "171104.625000", "171104.625000", "171104.640000", "171104.640000", "171104.640000", "171204.578000", "171204.578000", "171204.578000", "171204.593000", "171204.593000", "171204.593000", "171204.593000", "171204.593000", "171204.593000", "171204.593000", "171204.593000", "171204.609000", "171204.609000", "171204.609000", "171204.609000", "171204.625000", "171204.625000", "171204.625000", "171204.625000", "171204.640000", "171204.640000", "171204.640000", "171204.640000", "171304.578000", "171304.578000", "171304.578000", "171304.593000", "171304.593000", "171304.593000", "171304.593000", "171304.593000", "171304.593000", "171304.593000", "171304.593000", "171304.609000", "171304.609000", "171304.609000", "171304.609000", "171304.609000", "171304.609000", "171304.625000", "171304.625000", "171304.625000", "171304.625000", "171304.625000", "171304.625000", "171404.578000", "171404.578000", "171404.593000", "171404.593000", "171404.593000", "171404.593000", "171404.593000", "171404.593000", "171404.593000", "171404.593000", "171404.609000", "171404.609000", "171404.609000", "171404.609000", "171404.609000", "171404.625000", "171404.625000", "171404.625000", "171404.625000", "171404.625000", "171404.625000", "171404.640000", "171404.640000", "171504.578000", "171504.578000", "171504.578000", "171504.593000", "171504.593000", "171504.593000", "171504.593000", "171504.609000", "171504.609000", "171504.609000", "171504.609000", "171504.609000", "171504.609000", "171504.625000", "171504.625000", "171504.625000", "171504.625000", "171504.625000", "171504.625000", "171504.640000", "171504.640000", "171504.640000", "171504.640000", "171604.578000", "171604.578000", "171604.578000", "171604.593000", "171604.593000", "171604.593000", "171604.593000", "171604.593000", "171604.593000", "171604.593000", "171604.593000", "171604.609000", "171604.609000", "171604.609000", "171604.609000", "171604.609000", "171604.609000", "171604.609000", "171604.625000", "171604.625000", "171604.625000", "171604.625000", "171604.625000", "171704.578000", "171704.578000", "171704.578000", "171704.593000", "171704.593000", "171704.593000", "171704.609000", "171704.609000", "171704.609000", "171704.625000", "171704.625000", "171704.625000", "171704.625000", "171704.625000", "171704.625000", "171704.640000", "171704.640000", "171704.640000", "171704.640000", "171704.640000", "171704.640000", "171704.640000", "171704.656000", "171739.062000", "171739.062000", "171739.078000", "171739.078000", "171739.078000", "171739.078000", "171739.078000", "171739.078000", "171739.078000", "171739.093000", "171739.093000", "171739.093000"],
      "InstanceNumber": [1, 2, 3, 4, 5, 6, 7, 8, 9, 10, 11, 12, 13, 14, 15, 16, 17, 18, 19, 20, 21, 22, 23, 24, 25, 26, 27, 28, 29, 30, 31, 32, 33, 34, 35, 36, 37, 38, 39, 40, 41, 42, 43, 44, 45, 46, 47, 48, 49, 50, 51, 52, 53, 54, 55, 56, 57, 58, 59, 60, 61, 62, 63, 64, 65, 66, 67, 68, 69, 70, 71, 72, 73, 74, 75, 76, 77, 78, 79, 80, 81, 82, 83, 84, 85, 86, 87, 88, 89, 90, 91, 92, 93, 94, 95, 96, 97, 98, 99, 100, 101, 102, 103, 104, 105, 106, 107, 108, 109, 110, 111, 112, 113, 114, 115, 116, 117, 118, 119, 120, 121, 122, 123, 124, 125, 126, 127, 128, 129, 130, 131, 132, 133, 134, 135, 136, 137, 138, 139, 140, 141, 142, 143, 144, 145, 146, 147, 148, 149, 150, 151, 152, 153, 154, 155, 156, 157, 158, 159, 160, 161, 162, 163, 164, 165, 166, 167, 168, 169, 170, 171, 172, 173, 174, 175, 176, 177, 178, 179, 180, 181, 182, 183, 184, 185, 186, 187, 188, 189, 190, 191, 192, 193, 194, 195, 196, 197, 198, 199, 200, 201, 202, 203, 204, 205, 206, 207, 208, 209, 210, 211, 212, 213, 214, 215, 216, 217, 218, 219, 220, 221, 222, 223],
      "WindowCenter": [902.0, 900.0, 899.0, 899.0, 900.0, 901.0, 901.0, 901.0, 901.0, 902.0, 901.0, 902.0, 902.0, 902.0, 901.0, 900.0, 901.0, 900.0, 900.0, 901.0, 902.0, 901.0, 902.0, 903.0, 903.0, 901.0, 900.0, 900.0, 901.0, 900.0, 900.0, 899.0, 900.0, 901.0, 901.0, 902.0, 902.0, 903.0, 902.0, 902.0, 902.0, 903.0, 903.0, 900.0, 900.0, 901.0, 900.0, 900.0, 901.0, 902.0, 901.0, 901.0, 902.0, 901.0, 902.0, 903.0, 903.0, 902.0, 902.0, 902.0, 903.0, 903.0, 903.0, 903.0, 903.0, 902.0, 903.0, 903.0, 903.0, 902.0, 901.0, 902.0, 902.0, 902.0, 903.0, 905.0, 903.0, 902.0, 904.0, 902.0, 901.0, 902.0, 902.0, 902.0, 903.0, 904.0, 903.0, 902.0, 902.0, 903.0, 903.0, 902.0, 902.0, 903.0, 903.0, 903.0, 904.0, 903.0, 902.0, 902.0, 902.0, 906.0, 904.0, 901.0, 902.0, 903.0, 903.0, 903.0, 903.0, 903.0, 903.0, 903.0, 903.0, 902.0, 903.0, 904.0, 903.0, 904.0, 903.0, 903.0, 904.0, 904.0, 903.0, 902.0, 903.0, 902.0, 902.0, 902.0, 902.0, 903.0, 903.0, 903.0, 903.0, 903.0, 904.0, 903.0, 904.0, 904.0, 902.0, 902.0, 902.0, 901.0, 902.0, 902.0, 902.0, 902.0, 903.0, 902.0, 902.0, 902.0, 902.0, 902.0, 903.0, 903.0, 902.0, 902.0, 902.0, 902.0, 902.0, 902.0, 901.0, 902.0, 904.0, 903.0, 903.0, 903.0, 901.0, 902.0, 901.0, 902.0, 903.0, 902.0, 902.0, 903.0, 903.0, 902.0, 903.0, 906.0, 904.0, 904.0, 905.0, 902.0, 901.0, 901.0, 900.0, 900.0, 901.0, 902.0, 902.0, 902.0, 903.0, 903.0, 903.0, 902.0, 902.0, 901.0, 901.0, 905.0, 903.0, 901.0, 901.0, 902.0, 901.0, 901.0, 903.0, 902.0, 902.0, 902.0, 902.0, 903.0, 902.0, 903.0, 905.0, 905.0, 904.0, 903.0, 903.0, 902.0, 901.0, 901.0, 901.0, 902.0, 902.0],
      "WindowWidth": [2113.0, 2103.0, 2101.0, 2102.0, 2103.0, 2106.0, 2109.0, 2109.0, 2107.0, 2113.0, 2109.0, 2113.0, 2111.0, 2111.0, 2107.0, 2105.0, 2107.0, 2105.0, 2105.0, 2109.0, 2110.0, 2110.0, 2113.0, 2118.0, 2116.0, 2110.0, 2104.0, 2107.0, 2106.0, 2103.0, 2104.0, 2102.0, 2105.0, 2110.0, 2108.0, 2112.0, 2114.0, 2116.0, 2111.0, 2113.0, 2115.0, 2118.0, 2117.0, 2103.0, 2106.0, 2110.0, 2104.0, 2103.0, 2109.0, 2113.0, 2106.0, 2106.0, 2111.0, 2109.0, 2113.0, 2115.0, 2116.0, 2115.0, 2112.0, 2111.0, 2116.0, 2117.0, 2119.0, 2118.0, 2117.0, 2114.0, 2115.0, 2116.0, 2116.0, 2110.0, 2108.0, 2113.0, 2112.0, 2114.0, 2118.0, 2123.0, 2114.0, 2113.0, 2120.0, 2112.0, 2108.0, 2113.0, 2114.0, 2113.0, 2118.0, 2123.0, 2117.0, 2112.0, 2113.0, 2113.0, 2114.0, 2111.0, 2111.0, 2117.0, 2114.0, 2116.0, 2120.0, 2116.0, 2112.0, 2111.0, 2114.0, 2128.0, 2118.0, 2109.0, 2116.0, 2119.0, 2116.0, 2117.0, 2116.0, 2118.0, 2115.0, 2115.0, 2115.0, 2113.0, 2116.0, 2118.0, 2119.0, 2119.0, 2115.0, 2116.0, 2119.0, 2120.0, 2115.0, 2114.0, 2114.0, 2110.0, 2112.0, 2113.0, 2114.0, 2115.0, 2115.0, 2117.0, 2115.0, 2117.0, 2119.0, 2116.0, 2120.0, 2118.0, 2113.0, 2110.0, 2112.0, 2109.0, 2111.0, 2111.0, 2112.0, 2112.0, 2114.0, 2112.0, 2112.0, 2113.0, 2113.0, 2113.0, 2116.0, 2114.0, 2113.0, 2112.0, 2111.0, 2111.0, 2112.0, 2110.0, 2108.0, 2115.0, 2122.0, 2117.0, 2116.0, 2114.0, 2107.0, 2112.0, 2108.0, 2112.0, 2114.0, 2112.0, 2111.0, 2114.0, 2115.0, 2112.0, 2119.0, 2127.0, 2121.0, 2119.0, 2125.0, 2112.0, 2110.0, 2107.0, 2106.0, 2104.0, 2108.0, 2110.0, 2111.0, 2114.0, 2118.0, 2118.0, 2117.0, 2111.0, 2111.0, 2110.0, 2108.0, 2124.0, 2117.0, 2107.0, 2108.0, 2111.0, 2109.0, 2108.0, 2114.0, 2112.0, 2113.0, 2111.0, 2114.0, 2117.0, 2113.0, 2114.0, 2123.0, 2125.0, 2120.0, 2115.0, 2114.0, 2112.0, 2110.0, 2107.0, 2108.0, 2112.0, 2112.0]
    },
    "slices": {}
  }
}