{
  "AcquisitionMatrixPE": 188,
  "AcquisitionNumber": 1,
  "AcquisitionTime": "17:18:24.675000",
  "BandwidthPerPixelPhaseEncode": 19.46,
  "BaseResolution": 188,
  "ConversionSoftware": "dcm2niix",
  "ConversionSoftwareVersion": "v1.0.20180606 GCC4.8.5",
  "DerivedVendorReportedEchoSpacing": 0.000820013,
  "DeviceSerialNumber": "18930",
  "DwellTime": 1.9e-06,
  "EchoTime": 0.02,
  "EffectiveEchoSpacing": 0.000273338,
  "FlipAngle": 75,
  "ImageComments": "Unaliased_MB2_PE2",
  "ImageOrientationPatientDICOM": [0.99401, 0.103069, 0.0363532, 0.00127974, 0.321625, -0.946866],
  "ImageType": [
    "ORIGINAL",
    "PRIMARY",
    "M",
    "MB",
    "ND",
    "MOSAIC"
],
  "InPlanePhaseEncodingDirectionDICOM": "COL",
  "InstitutionAddress": "Oxfordlaan_55_Maastricht_22AAA2_Limburg_NL_6229_EV",
  "InstitutionName": "Scannexus",
  "InstitutionalDepartmentName": "MRI_7T",
  "MRAcquisitionType": "2D",
  "MagneticFieldStrength": 6.98,
  "Manufacturer": "Siemens",
  "ManufacturersModelName": "Investigational_Device_7T",
  "Modality": "MR",
  "MultibandAccelerationFactor": 2,
  "ParallelReductionFactorInPlane": 3,
  "PartialFourier": 0.75,
  "PatientPosition": "HFS",
  "PercentPhaseFOV": 100,
  "PhaseEncodingDirection": "j",
  "PhaseEncodingSteps": 141,
  "PhaseResolution": 1,
  "PixelBandwidth": 1400,
  "ProcedureStepDescription": "FeDem_Faruk",
  "ProtocolName": "cmrr_mbep2d_bold_AP_rest",
  "PulseSequenceDetails": "%CustomerSeq%_cmrr_mbep2d_bold",
  "ReceiveCoilName": "32Ch_Head_7T",
  "ReconMatrixPE": 188,
  "RepetitionTime": 1.5,
  "SAR": 0.0975856,
  "ScanOptions": "PFP_FS",
  "ScanningSequence": "EP",
  "SequenceName": "epfid2d1_188",
  "SequenceVariant": "SK_SS",
  "SeriesDescription": "cmrr_mbep2d_bold_AP_rest",
  "SeriesNumber": 25,
  "ShimSetting": [73, -51, 257, 555, -138, 205, 537, 102],
  "SliceThickness": 1.1,
  "SliceTiming": [0, 0.785, 0.06, 0.845, 0.1225, 0.905, 0.1825, 0.965, 0.2425, 1.025, 0.3025, 1.085, 0.3625, 1.145, 0.4225, 1.205, 0.4825, 1.265, 0.5425, 1.325, 0.6025, 1.385, 0.6625, 1.445, 0.7225, 0, 0.785, 0.06, 0.845, 0.1225, 0.905, 0.1825, 0.965, 0.2425, 1.025, 0.3025, 1.085, 0.3625, 1.145, 0.4225, 1.205, 0.4825, 1.265, 0.5425, 1.325, 0.6025, 1.385, 0.6625, 1.445, 0.7225],
  "SoftwareVersions": "syngo_MR_B17",
  "SpacingBetweenSlices": 1.1,
  "StationName": "MRC18930",
  "TotalReadoutTime": 0.0511141,
  "TxRefAmp": 172.292,
  "dcmmeta_affine": [
    [-1.089180827140808, 0.001402263413183391, 0.1202130988240242, 100.79218292236328],
    [-0.11293729394674301, 0.3524186313152313, -1.0353649854660034, 26.450159072875977],
    [0.039833810180425644, 1.037523865699768, 0.351522833108902, -116.73245239257812],
    [0.0, 0.0, 0.0, 1.0]
],
  "dcmmeta_reorient_transform": [
    [0.0, -1.0, 0.0, 187.0],
    [1.0, 0.0, 0.0, 0.0],
    [0.0, 0.0, 1.0, 0.0],
    [0.0, 0.0, 0.0, 1.0]
],
  "dcmmeta_shape": [188, 188, 50, 400],
  "dcmmeta_slice_dim": 2,
  "dcmmeta_version": 0.6,
  "global": {
    "const": {
      "AcquisitionMatrix": [188, 0, 0, 188],
      "AngioFlag": "N",
      "BitsAllocated": 16,
      "BitsStored": 12,
      "Columns": 1504,
      "EchoNumbers": 1,
      "EchoTime": 20.0,
      "EchoTrainLength": 1,
      "FlipAngle": 75.0,
      "HighBit": 11,
      "ImageOrientationPatient": [0.99400967338002, 0.10306898320871, 0.0363531831792, 0.00127973543332, 0.32162475404025, -0.9468663474143],
      "ImagePositionPatient": [-818.6581051311, -398.55664078476, 733.76452064624],
      "ImageType": [
        "ORIGINAL",
        "PRIMARY",
        "M",
        "MB",
        "ND",
        "MOSAIC"
],
      "ImagedNucleus": "1H",
      "ImagingFrequency": 297.205665,
      "InPlanePhaseEncodingDirection": "COL",
      "MRAcquisitionType": "2D",
      "MagneticFieldStrength": 6.98,
      "Manufacturer": "SIEMENS",
      "ManufacturerModelName": "Investigational_Device_7T",
      "Modality": "MR",
      "NumberOfAverages": 1.0,
      "NumberOfPhaseEncodingSteps": 141,
      "PercentPhaseFieldOfView": 100.0,
      "PercentSampling": 100.0,
      "PerformedProcedureStepStartTime": "150545.421000",
      "PhotometricInterpretation": "MONOCHROME2",
      "PixelBandwidth": 1400.0,
      "PixelRepresentation": 0,
      "PixelSpacing": [1.0957447290421, 1.0957447290421],
      "ProtocolName": "cmrr_mbep2d_bold_AP_rest",
      "RepetitionTime": 1500.0,
      "Rows": 1504,
      "SAR": 0.09758556293467,
      "SamplesPerPixel": 1,
      "ScanOptions": [
        "PFP",
        "FS"
],
      "ScanningSequence": "EP",
      "SequenceName": "epfid2d1_188",
      "SequenceVariant": [
        "SK",
        "SS"
],
      "SeriesDescription": "cmrr_mbep2d_bold_AP_rest",
      "SeriesNumber": 25,
      "SeriesTime": "171835.468000",
      "SliceLocation": -51.184680356994,
      "SliceThickness": 1.1000000238419,
      "SmallestImagePixelValue": 0,
      "SoftwareVersions": "syngo MR B17",
      "SpacingBetweenSlices": 1.1000000259333,
      "SpecificCharacterSet": "ISO_IR 100",
      "StudyID": "1",
      "StudyTime": "150545.375000",
      "TransmitCoilName": "32Ch_Head_7T",
      "VariableFlipAngleFlag": "N",
      "WindowCenterWidthExplanation": "Algo1",
      "dBdt": 0.0},
    "slices": {}
  },
  "time": {
    "samples": {
      "AcquisitionNumber": [1, 2, 3, 4, 5, 6, 7, 8, 9, 10, 11, 12, 13, 14, 15, 16, 17, 18, 19, 20, 21, 22, 23, 24, 25, 26, 27, 28, 29, 30, 31, 32, 33, 34, 35, 36, 37, 38, 39, 40, 41, 42, 43, 44, 45, 46, 47, 48, 49, 50, 51, 52, 53, 54, 55, 56, 57, 58, 59, 60, 61, 62, 63, 64, 65, 66, 67, 68, 69, 70, 71, 72, 73, 74, 75, 76, 77, 78, 79, 80, 81, 82, 83, 84, 85, 86, 87, 88, 89, 90, 91, 92, 93, 94, 95, 96, 97, 98, 99, 100, 101, 102, 103, 104, 105, 106, 107, 108, 109, 110, 111, 112, 113, 114, 115, 116, 117, 118, 119, 120, 121, 122, 123, 124, 125, 126, 127, 128, 129, 130, 131, 132, 133, 134, 135, 136, 137, 138, 139, 140, 141, 142, 143, 144, 145, 146, 147, 148, 149, 150, 151, 152, 153, 154, 155, 156, 157, 158, 159, 160, 161, 162, 163, 164, 165, 166, 167, 168, 169, 170, 171, 172, 173, 174, 175, 176, 177, 178, 179, 180, 181, 182, 183, 184, 185, 186, 187, 188, 189, 190, 191, 192, 193, 194, 195, 196, 197, 198, 199, 200, 201, 202, 203, 204, 205, 206, 207, 208, 209, 210, 211, 212, 213, 214, 215, 216, 217, 218, 219, 220, 221, 222, 223, 224, 225, 226, 227, 228, 229, 230, 231, 232, 233, 234, 235, 236, 237, 238, 239, 240, 241, 242, 243, 244, 245, 246, 247, 248, 249, 250, 251, 252, 253, 254, 255, 256, 257, 258, 259, 260, 261, 262, 263, 264, 265, 266, 267, 268, 269, 270, 271, 272, 273, 274, 275, 276, 277, 278, 279, 280, 281, 282, 283, 284, 285, 286, 287, 288, 289, 290, 291, 292, 293, 294, 295, 296, 297, 298, 299, 300, 301, 302, 303, 304, 305, 306, 307, 308, 309, 310, 311, 312, 313, 314, 315, 316, 317, 318, 319, 320, 321, 322, 323, 324, 325, 326, 327, 328, 329, 330, 331, 332, 333, 334, 335, 336, 337, 338, 339, 340, 341, 342, 343, 344, 345, 346, 347, 348, 349, 350, 351, 352, 353, 354, 355, 356, 357, 358, 359, 360, 361, 362, 363, 364, 365, 366, 367, 368, 369, 370, 371, 372, 373, 374, 375, 376, 377, 378, 379, 380, 381, 382, 383, 384, 385, 386, 387, 388, 389, 390, 391, 392, 393, 394, 395, 396, 397, 398, 399, 400],
      "AcquisitionTime": ["171824.675000", "171826.182500", "171827.687500", "171829.195000", "171830.700000", "171832.205000", "171833.712500", "171835.217500", "171836.725000", "171838.230000", "171839.735000", "171841.242500", "171842.747500", "171844.255000", "171845.760000", "171847.267500", "171848.772500", "171850.277500", "171851.785000", "171853.290000", "171854.797500", "171856.302500", "171857.807500", "171859.315000", "171900.820000", "171902.327500", "171903.832500", "171905.337500", "171906.845000", "171908.350000", "171909.857500", "171911.362500", "171912.867500", "171914.375000", "171915.880000", "171917.387500", "171918.892500", "171920.400000", "171921.905000", "171923.410000", "171924.917500", "171926.422500", "171927.930000", "171929.435000", "171930.940000", "171932.447500", "171933.952500", "171935.460000", "171936.965000", "171938.470000", "171939.977500", "171941.482500", "171942.990000", "171944.495000", "171946.000000", "171947.507500", "171949.012500", "171950.520000", "171952.025000", "171953.532500", "171955.037500", "171956.542500", "171958.050000", "171959.555000", "172001.062500", "172002.567500", "172004.072500", "172005.580000", "172007.085000", "172008.592500", "172010.097500", "172011.602500", "172013.110000", "172014.615000", "172016.122500", "172017.627500", "172019.135000", "172020.640000", "172022.145000", "172023.652500", "172025.157500", "172026.665000", "172028.170000", "172029.675000", "172031.182500", "172032.687500", "172034.195000", "172035.700000", "172037.205000", "172038.712500", "172040.217500", "172041.725000", "172043.230000", "172044.735000", "172046.242500", "172047.747500", "172049.255000", "172050.760000", "172052.267500", "172053.772500", "172055.277500", "172056.785000", "172058.290000", "172059.797500", "172101.302500", "172102.807500", "172104.315000", "172105.820000", "172107.327500", "172108.832500", "172110.337500", "172111.845000", "172113.350000", "172114.857500", "172116.362500", "172117.867500", "172119.375000", "172120.880000", "172122.387500", "172123.892500", "172125.400000", "172126.905000", "172128.410000", "172129.917500", "172131.422500", "172132.930000", "172134.435000", "172135.940000", "172137.447500", "172138.952500", "172140.460000", "172141.965000", "172143.470000", "172144.977500", "172146.482500", "172147.990000", "172149.495000", "172151.000000", "172152.507500", "172154.012500", "172155.520000", "172157.025000", "172158.532500", "172200.037500", "172201.542500", "172203.050000", "172204.555000", "172206.062500", "172207.567500", "172209.072500", "172210.580000", "172212.085000", "172213.592500", "172215.097500", "172216.602500", "172218.110000", "172219.615000", "172221.122500", "172222.627500", "172224.135000", "172225.640000", "172227.145000", "172228.652500", "172230.157500", "172231.665000", "172233.170000", "172234.675000", "172236.182500", "172237.687500", "172239.195000", "172240.700000", "172242.205000", "172243.712500", "172245.217500", "172246.725000", "172248.230000", "172249.735000", "172251.242500", "172252.747500", "172254.255000", "172255.760000", "172257.267500", "172258.772500", "172300.277500", "172301.785000", "172303.290000", "172304.797500", "172306.302500", "172307.807500", "172309.315000", "172310.820000", "172312.327500", "172313.832500", "172315.337500", "172316.845000", "172318.350000", "172319.857500", "172321.362500", "172322.867500", "172324.375000", "172325.880000", "172327.387500", "172328.892500", "172330.400000", "172331.905000", "172333.410000", "172334.917500", "172336.422500", "172337.930000", "172339.435000", "172340.940000", "172342.447500", "172343.952500", "172345.460000", "172346.965000", "172348.470000", "172349.977500", "172351.482500", "172352.990000", "172354.495000", "172356.000000", "172357.507500", "172359.012500", "172400.520000", "172402.025000", "172403.532500", "172405.037500", "172406.542500", "172408.050000", "172409.555000", "172411.062500", "172412.567500", "172414.072500", "172415.580000", "172417.085000", "172418.592500", "172420.097500", "172421.602500", "172423.110000", "172424.615000", "172426.122500", "172427.627500", "172429.135000", "172430.640000", "172432.145000", "172433.652500", "172435.157500", "172436.665000", "172438.170000", "172439.675000", "172441.182500", "172442.687500", "172444.195000", "172445.700000", "172447.205000", "172448.712500", "172450.217500", "172451.725000", "172453.230000", "172454.735000", "172456.242500", "172457.747500", "172459.255000", "172500.760000", "172502.267500", "172503.772500", "172505.277500", "172506.785000", "172508.290000", "172509.797500", "172511.302500", "172512.807500", "172514.315000", "172515.820000", "172517.327500", "172518.832500", "172520.337500", "172521.845000", "172523.350000", "172524.857500", "172526.362500", "172527.867500", "172529.375000", "172530.880000", "172532.387500", "172533.892500", "172535.400000", "172536.905000", "172538.410000", "172539.917500", "172541.422500", "172542.930000", "172544.435000", "172545.940000", "172547.447500", "172548.952500", "172550.460000", "172551.965000", "172553.470000", "172554.977500", "172556.482500", "172557.990000", "172559.495000", "172601.000000", "172602.507500", "172604.012500", "172605.520000", "172607.025000", "172608.532500", "172610.037500", "172611.542500", "172613.050000", "172614.555000", "172616.062500", "172617.567500", "172619.072500", "172620.580000", "172622.085000", "172623.592500", "172625.097500", "172626.602500", "172628.110000", "172629.615000", "172631.122500", "172632.627500", "172634.135000", "172635.640000", "172637.145000", "172638.652500", "172640.157500", "172641.665000", "172643.170000", "172644.675000", "172646.182500", "172647.687500", "172649.195000", "172650.700000", "172652.205000", "172653.712500", "172655.217500", "172656.725000", "172658.230000", "172659.735000", "172701.242500", "172702.747500", "172704.255000", "172705.760000", "172707.267500", "172708.772500", "172710.277500", "172711.785000", "172713.290000", "172714.797500", "172716.302500", "172717.807500", "172719.315000", "172720.820000", "172722.327500", "172723.832500", "172725.337500", "172726.845000", "172728.350000", "172729.857500", "172731.362500", "172732.867500", "172734.375000", "172735.880000", "172737.387500", "172738.892500", "172740.400000", "172741.905000", "172743.410000", "172744.917500", "172746.422500", "172747.930000", "172749.435000", "172750.940000", "172752.447500", "172753.952500", "172755.460000", "172756.965000", "172758.470000", "172759.977500", "172801.482500", "172802.990000", "172804.495000", "172806.000000", "172807.507500", "172809.012500", "172810.520000", "172812.025000", "172813.532500", "172815.037500", "172816.542500", "172818.050000", "172819.555000", "172821.062500", "172822.567500", "172824.072500", "172825.580000"],
      "ContentTime": ["171835.468000", "171836.468000", "171836.468000", "171837.468000", "171837.968000", "171838.968000", "171839.968000", "171840.968000", "171841.968000", "171843.468000", "171844.468000", "171845.453000", "171846.468000", "171847.968000", "171849.468000", "171850.953000", "171852.453000", "171853.968000", "171855.468000", "171856.968000", "171858.453000", "171859.968000", "171901.468000", "171902.968000", "171904.468000", "171905.968000", "171907.468000", "171908.968000", "171910.468000", "171911.968000", "171913.468000", "171914.968000", "171916.468000", "171917.968000", "171919.468000", "171920.968000", "171922.468000", "171923.968000", "171925.468000", "171926.968000", "171928.468000", "171929.968000", "171931.468000", "171932.968000", "171934.468000", "171935.968000", "171937.468000", "171938.968000", "171940.468000", "171941.968000", "171943.468000", "171944.968000", "171946.468000", "171947.968000", "171949.468000", "171950.968000", "171952.468000", "171953.953000", "171955.468000", "171956.968000", "171958.468000", "171959.968000", "172001.468000", "172002.968000", "172004.468000", "172005.968000", "172007.468000", "172008.968000", "172010.468000", "172011.953000", "172013.468000", "172014.968000", "172016.468000", "172017.968000", "172019.468000", "172020.968000", "172022.468000", "172023.968000", "172025.468000", "172026.968000", "172028.468000", "172029.968000", "172031.468000", "172032.968000", "172034.468000", "172035.968000", "172037.468000", "172038.968000", "172040.468000", "172041.968000", "172043.468000", "172044.968000", "172046.468000", "172047.968000", "172049.468000", "172050.968000", "172052.468000", "172053.953000", "172055.468000", "172056.968000", "172058.468000", "172059.968000", "172101.468000", "172102.968000", "172104.468000", "172105.968000", "172107.468000", "172108.968000", "172110.468000", "172111.968000", "172113.468000", "172114.968000", "172116.468000", "172117.968000", "172119.468000", "172120.968000", "172122.468000", "172123.968000", "172125.468000", "172126.968000", "172128.468000", "172129.968000", "172131.468000", "172132.968000", "172134.468000", "172135.968000", "172137.468000", "172138.968000", "172140.468000", "172141.968000", "172143.468000", "172144.953000", "172146.468000", "172147.968000", "172149.468000", "172150.968000", "172152.468000", "172153.968000", "172155.468000", "172156.968000", "172158.468000", "172159.968000", "172201.468000", "172202.968000", "172204.468000", "172205.953000", "172207.468000", "172208.968000", "172210.468000", "172211.968000", "172213.468000", "172214.968000", "172216.468000", "172217.968000", "172219.468000", "172220.968000", "172222.468000", "172223.968000", "172225.468000", "172226.968000", "172228.468000", "172229.968000", "172231.468000", "172232.968000", "172234.468000", "172235.968000", "172237.468000", "172238.968000", "172240.468000", "172241.968000", "172243.468000", "172244.968000", "172246.468000", "172247.968000", "172249.468000", "172250.968000", "172252.468000", "172253.968000", "172255.468000", "172256.968000", "172258.468000", "172259.968000", "172301.468000", "172302.968000", "172304.468000", "172305.968000", "172307.468000", "172308.968000", "172310.468000", "172311.968000", "172313.468000", "172314.968000", "172316.468000", "172317.968000", "172319.468000", "172320.968000", "172322.468000", "172323.968000", "172325.468000", "172326.968000", "172328.468000", "172329.968000", "172331.468000", "172332.968000", "172334.468000", "172335.968000", "172337.468000", "172338.968000", "172340.468000", "172341.968000", "172343.468000", "172344.968000", "172346.468000", "172347.968000", "172349.468000", "172350.968000", "172352.468000", "172353.968000", "172355.468000", "172356.968000", "172358.468000", "172359.968000", "172401.468000", "172402.968000", "172404.468000", "172405.968000", "172407.468000", "172408.968000", "172410.468000", "172411.968000", "172413.468000", "172414.968000", "172416.468000", "172417.968000", "172419.468000", "172420.968000", "172422.468000", "172423.968000", "172425.468000", "172426.968000", "172428.468000", "172429.968000", "172431.468000", "172432.968000", "172434.468000", "172435.968000", "172437.468000", "172438.968000", "172440.468000", "172441.968000", "172443.468000", "172444.968000", "172446.468000", "172447.968000", "172449.468000", "172450.968000", "172452.468000", "172453.968000", "172455.468000", "172456.968000", "172458.468000", "172459.968000", "172501.468000", "172502.968000", "172504.468000", "172505.968000", "172507.468000", "172508.968000", "172510.468000", "172511.968000", "172513.468000", "172514.968000", "172516.468000", "172517.968000", "172519.468000", "172520.968000", "172522.468000", "172523.968000", "172525.468000", "172526.968000", "172528.468000", "172529.968000", "172531.468000", "172532.968000", "172534.468000", "172535.968000", "172537.468000", "172538.968000", "172540.468000", "172541.968000", "172543.468000", "172544.968000", "172546.468000", "172547.968000", "172549.468000", "172550.968000", "172552.468000", "172553.968000", "172555.468000", "172556.968000", "172558.468000", "172559.968000", "172601.468000", "172602.968000", "172604.468000", "172605.968000", "172607.468000", "172608.968000", "172610.468000", "172611.968000", "172613.468000", "172614.968000", "172616.468000", "172617.968000", "172619.468000", "172620.968000", "172622.468000", "172623.968000", "172625.468000", "172626.968000", "172628.468000", "172629.968000", "172631.468000", "172632.968000", "172634.468000", "172635.968000", "172637.468000", "172638.968000", "172640.468000", "172641.968000", "172643.468000", "172644.968000", "172646.468000", "172647.968000", "172649.468000", "172650.968000", "172652.468000", "172653.968000", "172655.468000", "172656.968000", "172658.468000", "172659.968000", "172701.468000", "172702.968000", "172704.468000", "172705.968000", "172707.468000", "172708.968000", "172710.468000", "172711.968000", "172713.468000", "172714.968000", "172716.468000", "172717.968000", "172719.468000", "172720.968000", "172722.468000", "172723.968000", "172725.468000", "172726.968000", "172728.468000", "172729.968000", "172731.468000", "172732.968000", "172734.468000", "172735.968000", "172737.468000", "172738.968000", "172740.468000", "172741.968000", "172743.468000", "172744.968000", "172746.468000", "172747.968000", "172749.468000", "172750.968000", "172752.468000", "172753.968000", "172755.468000", "172756.968000", "172758.468000", "172759.968000", "172801.468000", "172802.968000", "172804.468000", "172805.968000", "172807.468000", "172808.968000", "172810.468000", "172811.968000", "172813.468000", "172814.968000", "172816.468000", "172817.968000", "172819.468000", "172820.968000", "172822.468000", "172823.968000", "172825.468000", "172826.828000"],
      "InstanceCreationTime": ["171835.468000", "171836.468000", "171836.468000", "171837.468000", "171837.968000", "171838.968000", "171839.968000", "171840.968000", "171841.968000", "171843.468000", "171844.468000", "171845.453000", "171846.468000", "171847.968000", "171849.468000", "171850.953000", "171852.453000", "171853.968000", "171855.468000", "171856.968000", "171858.453000", "171859.968000", "171901.468000", "171902.968000", "171904.468000", "171905.968000", "171907.468000", "171908.968000", "171910.468000", "171911.968000", "171913.468000", "171914.968000", "171916.468000", "171917.968000", "171919.468000", "171920.968000", "171922.468000", "171923.968000", "171925.468000", "171926.968000", "171928.468000", "171929.968000", "171931.468000", "171932.968000", "171934.468000", "171935.968000", "171937.468000", "171938.968000", "171940.468000", "171941.968000", "171943.468000", "171944.968000", "171946.468000", "171947.968000", "171949.468000", "171950.968000", "171952.468000", "171953.953000", "171955.468000", "171956.968000", "171958.468000", "171959.968000", "172001.468000", "172002.968000", "172004.468000", "172005.968000", "172007.468000", "172008.968000", "172010.468000", "172011.953000", "172013.468000", "172014.968000", "172016.468000", "172017.968000", "172019.468000", "172020.968000", "172022.468000", "172023.968000", "172025.468000", "172026.968000", "172028.468000", "172029.968000", "172031.468000", "172032.968000", "172034.468000", "172035.968000", "172037.468000", "172038.968000", "172040.468000", "172041.968000", "172043.468000", "172044.968000", "172046.468000", "172047.968000", "172049.468000", "172050.968000", "172052.468000", "172053.953000", "172055.468000", "172056.968000", "172058.468000", "172059.968000", "172101.468000", "172102.968000", "172104.468000", "172105.968000", "172107.468000", "172108.968000", "172110.468000", "172111.968000", "172113.468000", "172114.968000", "172116.468000", "172117.968000", "172119.468000", "172120.968000", "172122.468000", "172123.968000", "172125.468000", "172126.968000", "172128.468000", "172129.968000", "172131.468000", "172132.968000", "172134.468000", "172135.968000", "172137.468000", "172138.968000", "172140.468000", "172141.968000", "172143.468000", "172144.953000", "172146.468000", "172147.968000", "172149.468000", "172150.968000", "172152.468000", "172153.968000", "172155.468000", "172156.968000", "172158.468000", "172159.968000", "172201.468000", "172202.968000", "172204.468000", "172205.953000", "172207.468000", "172208.968000", "172210.468000", "172211.968000", "172213.468000", "172214.968000", "172216.468000", "172217.968000", "172219.468000", "172220.968000", "172222.468000", "172223.968000", "172225.468000", "172226.968000", "172228.468000", "172229.968000", "172231.468000", "172232.968000", "172234.468000", "172235.968000", "172237.468000", "172238.968000", "172240.468000", "172241.968000", "172243.468000", "172244.968000", "172246.468000", "172247.968000", "172249.468000", "172250.968000", "172252.468000", "172253.968000", "172255.468000", "172256.968000", "172258.468000", "172259.968000", "172301.468000", "172302.968000", "172304.468000", "172305.968000", "172307.468000", "172308.968000", "172310.468000", "172311.968000", "172313.468000", "172314.968000", "172316.468000", "172317.968000", "172319.468000", "172320.968000", "172322.468000", "172323.968000", "172325.468000", "172326.968000", "172328.468000", "172329.968000", "172331.468000", "172332.968000", "172334.468000", "172335.968000", "172337.468000", "172338.968000", "172340.468000", "172341.968000", "172343.468000", "172344.968000", "172346.468000", "172347.968000", "172349.468000", "172350.968000", "172352.468000", "172353.968000", "172355.468000", "172356.968000", "172358.468000", "172359.968000", "172401.468000", "172402.968000", "172404.468000", "172405.968000", "172407.468000", "172408.968000", "172410.468000", "172411.968000", "172413.468000", "172414.968000", "172416.468000", "172417.968000", "172419.468000", "172420.968000", "172422.468000", "172423.968000", "172425.468000", "172426.968000", "172428.468000", "172429.968000", "172431.468000", "172432.968000", "172434.468000", "172435.968000", "172437.468000", "172438.968000", "172440.468000", "172441.968000", "172443.468000", "172444.968000", "172446.468000", "172447.968000", "172449.468000", "172450.968000", "172452.468000", "172453.968000", "172455.468000", "172456.968000", "172458.468000", "172459.968000", "172501.468000", "172502.968000", "172504.468000", "172505.968000", "172507.468000", "172508.968000", "172510.468000", "172511.968000", "172513.468000", "172514.968000", "172516.468000", "172517.968000", "172519.468000", "172520.968000", "172522.468000", "172523.968000", "172525.468000", "172526.968000", "172528.468000", "172529.968000", "172531.468000", "172532.968000", "172534.468000", "172535.968000", "172537.468000", "172538.968000", "172540.468000", "172541.968000", "172543.468000", "172544.968000", "172546.468000", "172547.968000", "172549.468000", "172550.968000", "172552.468000", "172553.968000", "172555.468000", "172556.968000", "172558.468000", "172559.968000", "172601.468000", "172602.968000", "172604.468000", "172605.968000", "172607.468000", "172608.968000", "172610.468000", "172611.968000", "172613.468000", "172614.968000", "172616.468000", "172617.968000", "172619.468000", "172620.968000", "172622.468000", "172623.968000", "172625.468000", "172626.968000", "172628.468000", "172629.968000", "172631.468000", "172632.968000", "172634.468000", "172635.968000", "172637.468000", "172638.968000", "172640.468000", "172641.968000", "172643.468000", "172644.968000", "172646.468000", "172647.968000", "172649.468000", "172650.968000", "172652.468000", "172653.968000", "172655.468000", "172656.968000", "172658.468000", "172659.968000", "172701.468000", "172702.968000", "172704.468000", "172705.968000", "172707.468000", "172708.968000", "172710.468000", "172711.968000", "172713.468000", "172714.968000", "172716.468000", "172717.968000", "172719.468000", "172720.968000", "172722.468000", "172723.968000", "172725.468000", "172726.968000", "172728.468000", "172729.968000", "172731.468000", "172732.968000", "172734.468000", "172735.968000", "172737.468000", "172738.968000", "172740.468000", "172741.968000", "172743.468000", "172744.968000", "172746.468000", "172747.968000", "172749.468000", "172750.968000", "172752.468000", "172753.968000", "172755.468000", "172756.968000", "172758.468000", "172759.968000", "172801.468000", "172802.968000", "172804.468000", "172805.968000", "172807.468000", "172808.968000", "172810.468000", "172811.968000", "172813.468000", "172814.968000", "172816.468000", "172817.968000", "172819.468000", "172820.968000", "172822.468000", "172823.968000", "172825.468000", "172826.828000"],
      "InstanceNumber": [1, 2, 3, 4, 5, 6, 7, 8, 9, 10, 11, 12, 13, 14, 15, 16, 17, 18, 19, 20, 21, 22, 23, 24, 25, 26, 27, 28, 29, 30, 31, 32, 33, 34, 35, 36, 37, 38, 39, 40, 41, 42, 43, 44, 45, 46, 47, 48, 49, 50, 51, 52, 53, 54, 55, 56, 57, 58, 59, 60, 61, 62, 63, 64, 65, 66, 67, 68, 69, 70, 71, 72, 73, 74, 75, 76, 77, 78, 79, 80, 81, 82, 83, 84, 85, 86, 87, 88, 89, 90, 91, 92, 93, 94, 95, 96, 97, 98, 99, 100, 101, 102, 103, 104, 105, 106, 107, 108, 109, 110, 111, 112, 113, 114, 115, 116, 117, 118, 119, 120, 121, 122, 123, 124, 125, 126, 127, 128, 129, 130, 131, 132, 133, 134, 135, 136, 137, 138, 139, 140, 141, 142, 143, 144, 145, 146, 147, 148, 149, 150, 151, 152, 153, 154, 155, 156, 157, 158, 159, 160, 161, 162, 163, 164, 165, 166, 167, 168, 169, 170, 171, 172, 173, 174, 175, 176, 177, 178, 179, 180, 181, 182, 183, 184, 185, 186, 187, 188, 189, 190, 191, 192, 193, 194, 195, 196, 197, 198, 199, 200, 201, 202, 203, 204, 205, 206, 207, 208, 209, 210, 211, 212, 213, 214, 215, 216, 217, 218, 219, 220, 221, 222, 223, 224, 225, 226, 227, 228, 229, 230, 231, 232, 233, 234, 235, 236, 237, 238, 239, 240, 241, 242, 243, 244, 245, 246, 247, 248, 249, 250, 251, 252, 253, 254, 255, 256, 257, 258, 259, 260, 261, 262, 263, 264, 265, 266, 267, 268, 269, 270, 271, 272, 273, 274, 275, 276, 277, 278, 279, 280, 281, 282, 283, 284, 285, 286, 287, 288, 289, 290, 291, 292, 293, 294, 295, 296, 297, 298, 299, 300, 301, 302, 303, 304, 305, 306, 307, 308, 309, 310, 311, 312, 313, 314, 315, 316, 317, 318, 319, 320, 321, 322, 323, 324, 325, 326, 327, 328, 329, 330, 331, 332, 333, 334, 335, 336, 337, 338, 339, 340, 341, 342, 343, 344, 345, 346, 347, 348, 349, 350, 351, 352, 353, 354, 355, 356, 357, 358, 359, 360, 361, 362, 363, 364, 365, 366, 367, 368, 369, 370, 371, 372, 373, 374, 375, 376, 377, 378, 379, 380, 381, 382, 383, 384, 385, 386, 387, 388, 389, 390, 391, 392, 393, 394, 395, 396, 397, 398, 399, 400],
