{
  "AcquisitionMatrixPE": 188,
  "AcquisitionNumber": 1,
  "AcquisitionTime": "15:32:53.182500",
  "BandwidthPerPixelPhaseEncode": 19.46,
  "BaseResolution": 188,
  "ConversionSoftware": "dcm2niix",
  "ConversionSoftwareVersion": "v1.0.20180606 GCC4.8.5",
  "DelayTime": 1.2,
  "DerivedVendorReportedEchoSpacing": 0.000820013,
  "DeviceSerialNumber": "18930",
  "DwellTime": 1.9e-06,
  "EchoTime": 0.02,
  "EffectiveEchoSpacing": 0.000273338,
  "FlipAngle": 80,
  "ImageComments": "Unaliased_MB2_PE2",
  "ImageOrientationPatientDICOM": [0.997146, 0.0655968, -0.0373852, -0.0554599, 0.300366, -0.95221],
  "ImageType": [
    "ORIGINAL",
    "PRIMARY",
    "M",
    "MB",
    "ND",
    "MOSAIC"
],
  "InPlanePhaseEncodingDirectionDICOM": "COL",
  "InstitutionAddress": "Oxfordlaan_55_Maastricht_Limburg_NL_6229_EV",
  "InstitutionName": "Scannexus",
  "InstitutionalDepartmentName": "MRI_7T",
  "MRAcquisitionType": "2D",
  "MagneticFieldStrength": 6.98,
  "Manufacturer": "Siemens",
  "ManufacturersModelName": "Investigational_Device_7T",
  "Modality": "MR",
  "MultibandAccelerationFactor": 2,
  "ParallelReductionFactorInPlane": 3,
  "PartialFourier": 0.75,
  "PatientPosition": "HFS",
  "PercentPhaseFOV": 100,
  "PhaseEncodingDirection": "j",
  "PhaseEncodingSteps": 141,
  "PhaseResolution": 1,
  "PixelBandwidth": 1400,
  "ProcedureStepDescription": "FeDem_Faruk",
  "ProtocolName": "cmrr_mbep2d_bold_AP_run5",
  "PulseSequenceDetails": "%CustomerSeq%_cmrr_mbep2d_bold",
  "ReceiveCoilName": "32Ch_Head_7T",
  "ReconMatrixPE": 188,
  "RepetitionTime": 2.6,
  "SAR": 0.0633001,
  "ScanOptions": "PFP_FS",
  "ScanningSequence": "EP",
  "SequenceName": "epfid2d1_188",
  "SequenceVariant": "SK_SS",
  "SeriesDescription": "cmrr_mbep2d_bold_AP_run5",
  "SeriesNumber": 14,
  "ShimSetting": [70, -194, 546, 562, -84, -161, 15, 129],
  "SliceThickness": 1.1,
  "SliceTiming": [0, 0.7325, 0.0625, 0.795, 0.1225, 0.855, 0.1825, 0.9175, 0.245, 0.9775, 0.305, 1.04, 0.3675, 1.1, 0.4275, 1.16, 0.49, 1.2225, 0.55, 1.2825, 0.61, 1.345, 0.6725, 0, 0.7325, 0.0625, 0.795, 0.1225, 0.855, 0.1825, 0.9175, 0.245, 0.9775, 0.305, 1.04, 0.3675, 1.1, 0.4275, 1.16, 0.49, 1.2225, 0.55, 1.2825, 0.61, 1.345, 0.6725],
  "SoftwareVersions": "syngo_MR_B17",
  "SpacingBetweenSlices": 1.1,
  "StationName": "MRC18930",
  "TaskName": "auditory",
  "TotalReadoutTime": 0.0511141,
  "TxRefAmp": 250,
  "dcmmeta_affine": [
    [-1.0926170349121094, -0.06076992675662041, 0.05635593459010124, 105.78306579589844],
    [-0.07187733054161072, 0.3291241228580475, -1.0467216968536377, 13.95902156829834],
    [-0.04096466675400734, 1.043379545211792, 0.3334607481956482, -109.1678466796875],
    [0.0, 0.0, 0.0, 1.0]
],
  "dcmmeta_reorient_transform": [
    [0.0, -1.0, 0.0, 187.0],
    [1.0, 0.0, 0.0, 0.0],
    [0.0, 0.0, 1.0, 0.0],
    [0.0, 0.0, 0.0, 1.0]
],
  "dcmmeta_shape": [188, 188, 46, 220],
  "dcmmeta_slice_dim": 2,
  "dcmmeta_version": 0.6,
  "global": {
    "const": {
      "AcquisitionMatrix": [188, 0, 0, 188],
      "AngioFlag": "N",
      "BitsAllocated": 16,
      "BitsStored": 12,
      "Columns": 1316,
      "EchoNumbers": 1,
      "EchoTime": 20.0,
      "EchoTrainLength": 1,
      "FlipAngle": 80.0,
      "HighBit": 11,
      "ImageOrientationPatient": [0.99714562963932, 0.06559678296431, -0.0373852291144, -0.0554599301747, 0.30036568996081, -0.9522104013501],
      "ImagePositionPatient": [-676.38087808259, -301.67005077497, 697.51424994947],
      "ImageType": [
        "ORIGINAL",
        "PRIMARY",
        "M",
        "MB",
        "ND",
        "MOSAIC"
],
      "ImagedNucleus": "1H",
      "ImagingFrequency": 297.20543,
      "InPlanePhaseEncodingDirection": "COL",
      "LargestImagePixelValue": 4095,
      "MRAcquisitionType": "2D",
      "MagneticFieldStrength": 6.98,
      "Manufacturer": "SIEMENS",
      "ManufacturerModelName": "Investigational_Device_7T",
      "Modality": "MR",
      "NumberOfAverages": 1.0,
      "NumberOfPhaseEncodingSteps": 141,
      "PercentPhaseFieldOfView": 100.0,
      "PercentSampling": 100.0,
      "PerformedProcedureStepStartTime": "141500.968000",
      "PhotometricInterpretation": "MONOCHROME2",
      "PixelBandwidth": 1400.0,
      "PixelRepresentation": 0,
      "PixelSpacing": [1.0957447290421, 1.0957447290421],
      "ProtocolName": "cmrr_mbep2d_bold_AP_run5",
      "RepetitionTime": 2600.0,
      "Rows": 1316,
      "SAR": 0.06330014474695,
      "SamplesPerPixel": 1,
      "ScanOptions": [
        "PFP",
        "FS"
],
      "ScanningSequence": "EP",
      "SequenceName": "epfid2d1_188",
      "SequenceVariant": [
        "SK",
        "SS"
],
      "SeriesDescription": "cmrr_mbep2d_bold_AP_run5",
      "SeriesNumber": 14,
      "SeriesTime": "153349.234000",
      "SliceLocation": -40.957208464512,
      "SliceThickness": 1.1000000238419,
      "SmallestImagePixelValue": 0,
      "SoftwareVersions": "syngo MR B17",
      "SpacingBetweenSlices": 1.0999993098325,
      "SpecificCharacterSet": "ISO_IR 100",
      "StudyID": "1",
      "StudyTime": "141500.890000",
      "TransmitCoilName": "32Ch_Head_7T",
      "VariableFlipAngleFlag": "N",
      "WindowCenterWidthExplanation": "Algo1",
      "dBdt": 0.0},
    "slices": {}
  },
  "time": {
    "samples": {
      "AcquisitionNumber": [1, 2, 3, 4, 5, 6, 7, 8, 9, 10, 11, 12, 13, 14, 15, 16, 17, 18, 19, 20, 21, 22, 23, 24, 25, 26, 27, 28, 29, 30, 31, 32, 33, 34, 35, 36, 37, 38, 39, 40, 41, 42, 43, 44, 45, 46, 47, 48, 49, 50, 51, 52, 53, 54, 55, 56, 57, 58, 59, 60, 61, 62, 63, 64, 65, 66, 67, 68, 69, 70, 71, 72, 73, 74, 75, 76, 77, 78, 79, 80, 81, 82, 83, 84, 85, 86, 87, 88, 89, 90, 91, 92, 93, 94, 95, 96, 97, 98, 99, 100, 101, 102, 103, 104, 105, 106, 107, 108, 109, 110, 111, 112, 113, 114, 115, 116, 117, 118, 119, 120, 121, 122, 123, 124, 125, 126, 127, 128, 129, 130, 131, 132, 133, 134, 135, 136, 137, 138, 139, 140, 141, 142, 143, 144, 145, 146, 147, 148, 149, 150, 151, 152, 153, 154, 155, 156, 157, 158, 159, 160, 161, 162, 163, 164, 165, 166, 167, 168, 169, 170, 171, 172, 173, 174, 175, 176, 177, 178, 179, 180, 181, 182, 183, 184, 185, 186, 187, 188, 189, 190, 191, 192, 193, 194, 195, 196, 197, 198, 199, 200, 201, 202, 203, 204, 205, 206, 207, 208, 209, 210, 211, 212, 213, 214, 215, 216, 217, 218, 219, 220],
      "AcquisitionTime": ["153253.182500", "153255.792500", "153258.402500", "153301.015000", "153303.625000", "153306.235000", "153308.845000", "153311.455000", "153314.065000", "153316.677500", "153319.287500", "153321.897500", "153324.507500", "153327.117500", "153329.730000", "153332.340000", "153334.950000", "153337.560000", "153340.170000", "153342.780000", "153345.392500", "153348.002500", "153350.612500", "153353.222500", "153355.832500", "153358.442500", "153401.055000", "153403.665000", "153406.275000", "153408.885000", "153411.495000", "153414.107500", "153416.717500", "153419.327500", "153421.937500", "153424.547500", "153427.157500", "153429.770000", "153432.380000", "153434.990000", "153437.600000", "153440.210000", "153442.822500", "153445.432500", "153448.042500", "153450.652500", "153453.262500", "153455.872500", "153458.485000", "153501.095000", "153503.705000", "153506.315000", "153508.925000", "153511.535000", "153514.147500", "153516.757500", "153519.367500", "153521.977500", "153524.587500", "153527.200000", "153529.810000", "153532.420000", "153535.030000", "153537.640000", "153540.250000", "153542.862500", "153545.472500", "153548.082500", "153550.692500", "153553.302500", "153555.912500", "153558.525000", "153601.135000", "153603.745000", "153606.355000", "153608.965000", "153611.577500", "153614.187500", "153616.797500", "153619.407500", "153622.017500", "153624.627500", "153627.240000", "153629.850000", "153632.460000", "153635.070000", "153637.680000", "153640.290000", "153642.902500", "153645.512500", "153648.122500", "153650.732500", "153653.342500", "153655.955000", "153658.565000", "153701.175000", "153703.785000", "153706.395000", "153709.005000", "153711.617500", "153714.227500", "153716.837500", "153719.447500", "153722.057500", "153724.667500", "153727.280000", "153729.890000", "153732.500000", "153735.110000", "153737.720000", "153740.332500", "153742.942500", "153745.552500", "153748.162500", "153750.772500", "153753.382500", "153755.995000", "153758.605000", "153801.215000", "153803.825000", "153806.435000", "153809.045000", "153811.657500", "153814.267500", "153816.877500", "153819.487500", "153822.097500", "153824.710000", "153827.320000", "153829.930000", "153832.540000", "153835.150000", "153837.760000", "153840.372500", "153842.982500", "153845.592500", "153848.202500", "153850.812500", "153853.422500", "153856.035000", "153858.645000", "153901.255000", "153903.865000", "153906.475000", "153909.087500", "153911.697500", "153914.307500", "153916.917500", "153919.527500", "153922.137500", "153924.750000", "153927.360000", "153929.970000", "153932.580000", "153935.190000", "153937.800000", "153940.412500", "153943.022500", "153945.632500", "153948.242500", "153950.852500", "153953.465000", "153956.075000", "153958.685000", "154001.295000", "154003.905000", "154006.515000", "154009.127500", "154011.737500", "154014.347500", "154016.957500", "154019.567500", "154022.177500", "154024.790000", "154027.400000", "154030.010000", "154032.620000", "154035.230000", "154037.842500", "154040.452500", "154043.062500", "154045.672500", "154048.282500", "154050.892500", "154053.505000", "154056.115000", "154058.725000", "154101.335000", "154103.945000", "154106.555000", "154109.167500", "154111.777500", "154114.387500", "154116.997500", "154119.607500", "154122.220000", "154124.830000", "154127.440000", "154130.050000", "154132.660000", "154135.270000", "154137.882500", "154140.492500", "154143.102500", "154145.712500", "154148.322500", "154150.932500", "154153.545000", "154156.155000", "154158.765000", "154201.375000", "154203.985000", "154206.597500", "154209.207500", "154211.817500", "154214.427500", "154217.037500", "154219.647500", "154222.260000", "154224.870000"],
      "ContentTime": ["153349.234000", "153349.234000", "153349.234000", "153349.234000", "153349.250000", "153349.250000", "153349.250000", "153349.250000", "153349.250000", "153349.250000", "153349.250000", "153349.265000", "153349.265000", "153349.265000", "153349.281000", "153349.281000", "153349.281000", "153349.281000", "153349.281000", "153349.281000", "153449.218000", "153449.234000", "153449.234000", "153449.234000", "153449.250000", "153449.250000", "153449.250000", "153449.250000", "153449.250000", "153449.250000", "153449.250000", "153449.265000", "153449.265000", "153449.281000", "153449.281000", "153449.281000", "153449.281000", "153449.281000", "153449.281000", "153449.281000", "153449.281000", "153449.296000", "153449.296000", "153549.218000", "153549.234000", "153549.234000", "153549.234000", "153549.234000", "153549.234000", "153549.234000", "153549.234000", "153549.250000", "153549.250000", "153549.250000", "153549.250000", "153549.250000", "153549.250000", "153549.250000", "153549.250000", "153549.265000", "153549.265000", "153549.265000", "153549.265000", "153549.265000", "153549.265000", "153549.265000", "153549.281000", "153629.234000", "153629.234000", "153629.234000", "153629.234000", "153629.234000", "153629.234000", "153629.234000", "153629.250000", "153629.250000", "153629.250000", "153629.250000", "153629.250000", "153629.250000", "153629.250000", "153629.265000", "153729.234000", "153729.234000", "153729.234000", "153729.234000", "153729.234000", "153729.234000", "153729.234000", "153729.250000", "153729.250000", "153729.250000", "153729.250000", "153729.250000", "153729.250000", "153729.250000", "153729.250000", "153729.265000", "153729.265000", "153729.265000", "153729.265000", "153729.265000", "153729.265000", "153729.265000", "153729.281000", "153829.234000", "153829.234000", "153829.234000", "153829.234000", "153829.234000", "153829.234000", "153829.234000", "153829.234000", "153829.250000", "153829.250000", "153829.250000", "153829.250000", "153829.250000", "153829.250000", "153829.250000", "153829.265000", "153829.265000", "153829.265000", "153829.265000", "153829.265000", "153829.281000", "153829.281000", "153829.281000", "153929.218000", "153929.234000", "153929.234000", "153929.234000", "153929.234000", "153929.234000", "153929.250000", "153929.250000", "153929.250000", "153929.250000", "153929.250000", "153929.250000", "153929.250000", "153929.265000", "153929.265000", "153929.265000", "153929.265000", "153929.265000", "153929.265000", "153929.265000", "153929.265000", "153929.281000", "153929.281000", "154029.234000", "154029.234000", "154029.234000", "154029.234000", "154029.234000", "154029.234000", "154029.234000", "154029.250000", "154029.250000", "154029.250000", "154029.250000", "154029.250000", "154029.250000", "154029.250000", "154029.265000", "154029.265000", "154029.265000", "154029.265000", "154029.265000", "154029.265000", "154029.265000", "154029.281000", "154029.281000", "154129.234000", "154129.234000", "154129.234000", "154129.234000", "154129.234000", "154129.250000", "154129.250000", "154129.265000", "154129.265000", "154129.265000", "154129.265000", "154129.281000", "154129.281000", "154129.281000", "154129.281000", "154129.281000", "154129.281000", "154129.296000", "154129.296000", "154129.296000", "154129.296000", "154129.296000", "154129.296000", "154229.234000", "154229.234000", "154229.234000", "154229.234000", "154229.250000", "154229.250000", "154229.250000", "154229.250000", "154229.250000", "154229.250000", "154229.250000", "154229.265000", "154229.265000", "154229.265000", "154229.265000", "154229.265000", "154229.265000", "154229.265000", "154229.281000", "154229.281000", "154229.281000", "154229.281000", "154231.843000"],
      "InstanceCreationTime": ["153349.234000", "153349.234000", "153349.234000", "153349.234000", "153349.250000", "153349.250000", "153349.250000", "153349.250000", "153349.250000", "153349.250000", "153349.250000", "153349.265000", "153349.265000", "153349.265000", "153349.281000", "153349.281000", "153349.281000", "153349.281000", "153349.281000", "153349.281000", "153449.218000", "153449.234000", "153449.234000", "153449.234000", "153449.250000", "153449.250000", "153449.250000", "153449.250000", "153449.250000", "153449.250000", "153449.250000", "153449.265000", "153449.265000", "153449.281000", "153449.281000", "153449.281000", "153449.281000", "153449.281000", "153449.281000", "153449.281000", "153449.281000", "153449.296000", "153449.296000", "153549.218000", "153549.234000", "153549.234000", "153549.234000", "153549.234000", "153549.234000", "153549.234000", "153549.234000", "153549.250000", "153549.250000", "153549.250000", "153549.250000", "153549.250000", "153549.250000", "153549.250000", "153549.250000", "153549.265000", "153549.265000", "153549.265000", "153549.265000", "153549.265000", "153549.265000", "153549.265000", "153549.281000", "153629.234000", "153629.234000", "153629.234000", "153629.234000", "153629.234000", "153629.234000", "153629.234000", "153629.250000", "153629.250000", "153629.250000", "153629.250000", "153629.250000", "153629.250000", "153629.250000", "153629.265000", "153729.234000", "153729.234000", "153729.234000", "153729.234000", "153729.234000", "153729.234000", "153729.234000", "153729.250000", "153729.250000", "153729.250000", "153729.250000", "153729.250000", "153729.250000", "153729.250000", "153729.250000", "153729.265000", "153729.265000", "153729.265000", "153729.265000", "153729.265000", "153729.265000", "153729.265000", "153729.281000", "153829.234000", "153829.234000", "153829.234000", "153829.234000", "153829.234000", "153829.234000", "153829.234000", "153829.234000", "153829.250000", "153829.250000", "153829.250000", "153829.250000", "153829.250000", "153829.250000", "153829.250000", "153829.265000", "153829.265000", "153829.265000", "153829.265000", "153829.265000", "153829.281000", "153829.281000", "153829.281000", "153929.218000", "153929.234000", "153929.234000", "153929.234000", "153929.234000", "153929.234000", "153929.250000", "153929.250000", "153929.250000", "153929.250000", "153929.250000", "153929.250000", "153929.250000", "153929.265000", "153929.265000", "153929.265000", "153929.265000", "153929.265000", "153929.265000", "153929.265000", "153929.265000", "153929.281000", "153929.281000", "154029.234000", "154029.234000", "154029.234000", "154029.234000", "154029.234000", "154029.234000", "154029.234000", "154029.250000", "154029.250000", "154029.250000", "154029.250000", "154029.250000", "154029.250000", "154029.250000", "154029.265000", "154029.265000", "154029.265000", "154029.265000", "154029.265000", "154029.265000", "154029.265000", "154029.281000", "154029.281000", "154129.234000", "154129.234000", "154129.234000", "154129.234000", "154129.234000", "154129.250000", "154129.250000", "154129.265000", "154129.265000", "154129.265000", "154129.265000", "154129.281000", "154129.281000", "154129.281000", "154129.281000", "154129.281000", "154129.281000", "154129.296000", "154129.296000", "154129.296000", "154129.296000", "154129.296000", "154129.296000", "154229.234000", "154229.234000", "154229.234000", "154229.234000", "154229.250000", "154229.250000", "154229.250000", "154229.250000", "154229.250000", "154229.250000", "154229.250000", "154229.265000", "154229.265000", "154229.265000", "154229.265000", "154229.265000", "154229.265000", "154229.265000", "154229.281000", "154229.281000", "154229.281000", "154229.281000", "154231.843000"],
      "InstanceNumber": [1, 2, 3, 4, 5, 6, 7, 8, 9, 10, 11, 12, 13, 14, 15, 16, 17, 18, 19, 20, 21, 22, 23, 24, 25, 26, 27, 28, 29, 30, 31, 32, 33, 34, 35, 36, 37, 38, 39, 40, 41, 42, 43, 44, 45, 46, 47, 48, 49, 50, 51, 52, 53, 54, 55, 56, 57, 58, 59, 60, 61, 62, 63, 64, 65, 66, 67, 68, 69, 70, 71, 72, 73, 74, 75, 76, 77, 78, 79, 80, 81, 82, 83, 84, 85, 86, 87, 88, 89, 90, 91, 92, 93, 94, 95, 96, 97, 98, 99, 100, 101, 102, 103, 104, 105, 106, 107, 108, 109, 110, 111, 112, 113, 114, 115, 116, 117, 118, 119, 120, 121, 122, 123, 124, 125, 126, 127, 128, 129, 130, 131, 132, 133, 134, 135, 136, 137, 138, 139, 140, 141, 142, 143, 144, 145, 146, 147, 148, 149, 150, 151, 152, 153, 154, 155, 156, 157, 158, 159, 160, 161, 162, 163, 164, 165, 166, 167, 168, 169, 170, 171, 172, 173, 174, 175, 176, 177, 178, 179, 180, 181, 182, 183, 184, 185, 186, 187, 188, 189, 190, 191, 192, 193, 194, 195, 196, 197, 198, 199, 200, 201, 202, 203, 204, 205, 206, 207, 208, 209, 210, 211, 212, 213, 214, 215, 216, 217, 218, 219, 220],
      "WindowCenter": [977.0, 975.0, 977.0, 974.0, 973.0, 974.0, 975.0, 975.0, 974.0, 977.0, 977.0, 976.0, 977.0, 978.0, 977.0, 976.0, 979.0, 977.0, 978.0, 979.0, 976.0, 976.0, 978.0, 980.0, 976.0, 975.0, 976.0, 976.0, 976.0, 974.0, 978.0, 981.0, 979.0, 978.0, 976.0, 974.0, 973.0, 974.0, 974.0, 972.0, 972.0, 975.0, 976.0, 976.0, 978.0, 978.0, 977.0, 976.0, 974.0, 975.0, 974.0, 974.0, 975.0, 977.0, 975.0, 975.0, 980.0, 976.0, 976.0, 978.0, 979.0, 978.0, 975.0, 976.0, 981.0, 976.0, 975.0, 973.0, 973.0, 973.0, 976.0, 978.0, 978.0, 975.0, 976.0, 976.0, 977.0, 976.0, 977.0, 977.0, 977.0, 975.0, 974.0, 976.0, 976.0, 978.0, 976.0, 975.0, 977.0, 976.0, 980.0, 975.0, 971.0, 970.0, 973.0, 976.0, 975.0, 974.0, 975.0, 976.0, 976.0, 976.0, 979.0, 978.0, 976.0, 975.0, 979.0, 978.0, 978.0, 977.0, 977.0, 976.0, 978.0, 977.0, 975.0, 973.0, 972.0, 974.0, 975.0, 974.0, 972.0, 972.0, 977.0, 978.0, 974.0, 975.0, 976.0, 976.0, 975.0, 975.0, 977.0, 976.0, 975.0, 977.0, 976.0, 976.0, 977.0, 976.0, 981.0, 978.0, 975.0, 973.0, 973.0, 975.0, 975.0, 976.0, 978.0, 978.0, 974.0, 976.0, 976.0, 977.0, 980.0, 979.0, 974.0, 974.0, 976.0, 974.0, 976.0, 975.0, 974.0, 975.0, 973.0, 975.0, 973.0, 976.0, 978.0, 976.0, 975.0, 977.0, 977.0, 973.0, 971.0, 973.0, 976.0, 974.0, 978.0, 980.0, 977.0, 976.0, 976.0, 978.0, 977.0, 977.0, 980.0, 979.0, 978.0, 976.0, 974.0, 976.0, 978.0, 978.0, 979.0, 975.0, 974.0, 974.0, 975.0, 977.0, 976.0, 976.0, 975.0, 977.0, 977.0, 977.0, 976.0, 973.0, 977.0, 976.0, 982.0, 977.0, 974.0, 975.0, 979.0, 978.0, 978.0, 977.0, 977.0, 981.0, 982.0, 978.0],
      "WindowWidth": [2218.0, 2212.0, 2221.0, 2208.0, 2208.0, 2212.0, 2213.0, 2213.0, 2211.0, 2219.0, 2217.0, 2215.0, 2221.0, 2221.0, 2220.0, 2219.0, 2226.0, 2219.0, 2224.0, 2224.0, 2218.0, 2216.0, 2224.0, 2229.0, 2217.0, 2216.0, 2218.0, 2218.0, 2217.0, 2214.0, 2224.0, 2233.0, 2229.0, 2225.0, 2218.0, 2213.0, 2211.0, 2215.0, 2212.0, 2207.0, 2208.0, 2217.0, 2221.0, 2220.0, 2227.0, 2223.0, 2221.0, 2218.0, 2213.0, 2215.0, 2214.0, 2213.0, 2216.0, 2223.0, 2214.0, 2217.0, 2230.0, 2219.0, 2221.0, 2225.0, 2228.0, 2224.0, 2218.0, 2224.0, 2235.0, 2217.0, 2215.0, 2212.0, 2212.0, 2213.0, 2220.0, 2227.0, 2224.0, 2216.0, 2219.0, 2221.0, 2222.0, 2220.0, 2223.0, 2223.0, 2224.0, 2217.0, 2215.0, 2221.0, 2220.0, 2228.0, 2219.0, 2217.0, 2223.0, 2220.0, 2229.0, 2214.0, 2206.0, 2204.0, 2213.0, 2219.0, 2215.0, 2214.0, 2218.0, 2221.0, 2218.0, 2221.0, 2229.0, 2224.0, 2219.0, 2218.0, 2230.0, 2224.0, 2224.0, 2224.0, 2221.0, 2220.0, 2225.0, 2220.0, 2216.0, 2210.0, 2210.0, 2214.0, 2217.0, 2215.0, 2208.0, 2210.0, 2223.0, 2224.0, 2213.0, 2216.0, 2220.0, 2218.0, 2215.0, 2218.0, 2224.0, 2220.0, 2218.0, 2223.0, 2218.0, 2219.0, 2222.0, 2223.0, 2234.0, 2226.0, 2217.0, 2211.0, 2212.0, 2217.0, 2218.0, 2221.0, 2227.0, 2222.0, 2215.0, 2220.0, 2219.0, 2225.0, 2233.0, 2227.0, 2212.0, 2215.0, 2219.0, 2214.0, 2220.0, 2217.0, 2215.0, 2216.0, 2211.0, 2216.0, 2212.0, 2221.0, 2226.0, 2221.0, 2217.0, 2224.0, 2222.0, 2209.0, 2207.0, 2212.0, 2218.0, 2215.0, 2227.0, 2230.0, 2221.0, 2219.0, 2220.0, 2225.0, 2221.0, 2224.0, 2231.0, 2230.0, 2227.0, 2219.0, 2214.0, 2221.0, 2224.0, 2225.0, 2229.0, 2216.0, 2212.0, 2215.0, 2218.0, 2223.0, 2221.0, 2219.0, 2217.0, 2222.0, 2223.0, 2222.0, 2217.0, 2212.0, 2221.0, 2223.0, 2236.0, 2221.0, 2213.0, 2216.0, 2228.0, 2226.0, 2223.0, 2220.0, 2223.0, 2235.0, 2235.0, 2224.0]
    },
    "slices": {}
  }
}