{
  "AcquisitionMatrixPE": 188,
  "AcquisitionNumber": 1,
  "AcquisitionTime": "15:54:30.187500",
  "BandwidthPerPixelPhaseEncode": 19.46,
  "BaseResolution": 188,
  "ConversionSoftware": "dcm2niix",
  "ConversionSoftwareVersion": "v1.0.20180606 GCC4.8.5",
  "DelayTime": 1.2,
  "DerivedVendorReportedEchoSpacing": 0.000820013,
  "DeviceSerialNumber": "18930",
  "DwellTime": 1.9e-06,
  "EchoTime": 0.02,
  "EffectiveEchoSpacing": 0.000273338,
  "FlipAngle": 80,
  "ImageComments": "Unaliased_MB2_PE2",
  "ImageOrientationPatientDICOM": [0.997146, 0.0655968, -0.0373852, -0.0554599, 0.300366, -0.95221],
  "ImageType": [
    "ORIGINAL",
    "PRIMARY",
    "M",
    "MB",
    "ND",
    "MOSAIC"
],
  "InPlanePhaseEncodingDirectionDICOM": "COL",
  "InstitutionAddress": "Oxfordlaan_55_Maastricht_Limburg_NL_6229_EV",
  "InstitutionName": "Scannexus",
  "InstitutionalDepartmentName": "MRI_7T",
  "MRAcquisitionType": "2D",
  "MagneticFieldStrength": 6.98,
  "Manufacturer": "Siemens",
  "ManufacturersModelName": "Investigational_Device_7T",
  "Modality": "MR",
  "MultibandAccelerationFactor": 2,
  "ParallelReductionFactorInPlane": 3,
  "PartialFourier": 0.75,
  "PatientPosition": "HFS",
  "PercentPhaseFOV": 100,
  "PhaseEncodingDirection": "j",
  "PhaseEncodingSteps": 141,
  "PhaseResolution": 1,
  "PixelBandwidth": 1400,
  "ProcedureStepDescription": "FeDem_Faruk",
  "ProtocolName": "cmrr_mbep2d_bold_AP_run7",
  "PulseSequenceDetails": "%CustomerSeq%_cmrr_mbep2d_bold",
  "ReceiveCoilName": "32Ch_Head_7T",
  "ReconMatrixPE": 188,
  "RepetitionTime": 2.6,
  "SAR": 0.0635683,
  "ScanOptions": "PFP_FS",
  "ScanningSequence": "EP",
  "SequenceName": "epfid2d1_188",
  "SequenceVariant": "SK_SS",
  "SeriesDescription": "cmrr_mbep2d_bold_AP_run7",
  "SeriesNumber": 16,
  "ShimSetting": [70, -194, 546, 562, -84, -161, 15, 129],
  "SliceThickness": 1.1,
  "SliceTiming": [0, 0.7325, 0.06, 0.795, 0.1225, 0.855, 0.1825, 0.9175, 0.245, 0.9775, 0.305, 1.0375, 0.3675, 1.1, 0.4275, 1.16, 0.49, 1.2225, 0.55, 1.2825, 0.61, 1.345, 0.6725, 0, 0.7325, 0.06, 0.795, 0.1225, 0.855, 0.1825, 0.9175, 0.245, 0.9775, 0.305, 1.0375, 0.3675, 1.1, 0.4275, 1.16, 0.49, 1.2225, 0.55, 1.2825, 0.61, 1.345, 0.6725],
  "SoftwareVersions": "syngo_MR_B17",
  "SpacingBetweenSlices": 1.1,
  "StationName": "MRC18930",
  "TaskName": "auditory",
  "TotalReadoutTime": 0.0511141,
  "TxRefAmp": 250,
  "dcmmeta_affine": [
    [-1.0926170349121094, -0.06076992675662041, 0.05635593459010124, 105.78306579589844],
    [-0.07187733054161072, 0.3291241228580475, -1.0467216968536377, 13.95902156829834],
    [-0.04096466675400734, 1.043379545211792, 0.3334607481956482, -109.1678466796875],
    [0.0, 0.0, 0.0, 1.0]
],
  "dcmmeta_reorient_transform": [
    [0.0, -1.0, 0.0, 187.0],
    [1.0, 0.0, 0.0, 0.0],
    [0.0, 0.0, 1.0, 0.0],
    [0.0, 0.0, 0.0, 1.0]
],
  "dcmmeta_shape": [188, 188, 46, 220],
  "dcmmeta_slice_dim": 2,
  "dcmmeta_version": 0.6,
  "global": {
    "const": {
      "AcquisitionMatrix": [188, 0, 0, 188],
      "AngioFlag": "N",
      "BitsAllocated": 16,
      "BitsStored": 12,
      "Columns": 1316,
      "EchoNumbers": 1,
      "EchoTime": 20.0,
      "EchoTrainLength": 1,
      "FlipAngle": 80.0,
      "HighBit": 11,
      "ImageOrientationPatient": [0.99714562963932, 0.06559678296431, -0.0373852291144, -0.0554599301747, 0.30036568996081, -0.9522104013501],
      "ImagePositionPatient": [-676.38087808259, -301.67005077497, 697.51424994947],
      "ImageType": [
        "ORIGINAL",
        "PRIMARY",
        "M",
        "MB",
        "ND",
        "MOSAIC"
],
      "ImagedNucleus": "1H",
      "ImagingFrequency": 297.205429,
      "InPlanePhaseEncodingDirection": "COL",
      "LargestImagePixelValue": 4095,
      "MRAcquisitionType": "2D",
      "MagneticFieldStrength": 6.98,
      "Manufacturer": "SIEMENS",
      "ManufacturerModelName": "Investigational_Device_7T",
      "Modality": "MR",
      "NumberOfAverages": 1.0,
      "NumberOfPhaseEncodingSteps": 141,
      "PercentPhaseFieldOfView": 100.0,
      "PercentSampling": 100.0,
      "PerformedProcedureStepStartTime": "141500.968000",
      "PhotometricInterpretation": "MONOCHROME2",
      "PixelBandwidth": 1400.0,
      "PixelRepresentation": 0,
      "PixelSpacing": [1.0957447290421, 1.0957447290421],
      "ProtocolName": "cmrr_mbep2d_bold_AP_run7",
      "RepetitionTime": 2600.0,
      "Rows": 1316,
      "SAR": 0.06356829128772,
      "SamplesPerPixel": 1,
      "ScanOptions": [
        "PFP",
        "FS"
],
      "ScanningSequence": "EP",
      "SequenceName": "epfid2d1_188",
      "SequenceVariant": [
        "SK",
        "SS"
],
      "SeriesDescription": "cmrr_mbep2d_bold_AP_run7",
      "SeriesNumber": 16,
      "SeriesTime": "155530.359000",
      "SliceLocation": -40.957208464512,
      "SliceThickness": 1.1000000238419,
      "SmallestImagePixelValue": 0,
      "SoftwareVersions": "syngo MR B17",
      "SpacingBetweenSlices": 1.0999993098325,
      "SpecificCharacterSet": "ISO_IR 100",
      "StudyID": "1",
      "StudyTime": "141500.890000",
      "TransmitCoilName": "32Ch_Head_7T",
      "VariableFlipAngleFlag": "N",
      "WindowCenterWidthExplanation": "Algo1",
      "dBdt": 0.0},
    "slices": {}
  },
  "time": {
    "samples": {
      "AcquisitionNumber": [1, 2, 3, 4, 5, 6, 7, 8, 9, 10, 11, 12, 13, 14, 15, 16, 17, 18, 19, 20, 21, 22, 23, 24, 25, 26, 27, 28, 29, 30, 31, 32, 33, 34, 35, 36, 37, 38, 39, 40, 41, 42, 43, 44, 45, 46, 47, 48, 49, 50, 51, 52, 53, 54, 55, 56, 57, 58, 59, 60, 61, 62, 63, 64, 65, 66, 67, 68, 69, 70, 71, 72, 73, 74, 75, 76, 77, 78, 79, 80, 81, 82, 83, 84, 85, 86, 87, 88, 89, 90, 91, 92, 93, 94, 95, 96, 97, 98, 99, 100, 101, 102, 103, 104, 105, 106, 107, 108, 109, 110, 111, 112, 113, 114, 115, 116, 117, 118, 119, 120, 121, 122, 123, 124, 125, 126, 127, 128, 129, 130, 131, 132, 133, 134, 135, 136, 137, 138, 139, 140, 141, 142, 143, 144, 145, 146, 147, 148, 149, 150, 151, 152, 153, 154, 155, 156, 157, 158, 159, 160, 161, 162, 163, 164, 165, 166, 167, 168, 169, 170, 171, 172, 173, 174, 175, 176, 177, 178, 179, 180, 181, 182, 183, 184, 185, 186, 187, 188, 189, 190, 191, 192, 193, 194, 195, 196, 197, 198, 199, 200, 201, 202, 203, 204, 205, 206, 207, 208, 209, 210, 211, 212, 213, 214, 215, 216, 217, 218, 219, 220],
      "AcquisitionTime": ["155430.187500", "155432.797500", "155435.407500", "155438.020000", "155440.630000", "155443.240000", "155445.850000", "155448.460000", "155451.070000", "155453.682500", "155456.292500", "155458.902500", "155501.512500", "155504.122500", "155506.732500", "155509.345000", "155511.955000", "155514.565000", "155517.175000", "155519.785000", "155522.397500", "155525.007500", "155527.617500", "155530.227500", "155532.837500", "155535.447500", "155538.060000", "155540.670000", "155543.280000", "155545.890000", "155548.500000", "155551.110000", "155553.722500", "155556.332500", "155558.942500", "155601.552500", "155604.162500", "155606.775000", "155609.385000", "155611.995000", "155614.605000", "155617.215000", "155619.825000", "155622.437500", "155625.047500", "155627.657500", "155630.267500", "155632.877500", "155635.487500", "155638.100000", "155640.710000", "155643.320000", "155645.930000", "155648.540000", "155651.152500", "155653.762500", "155656.372500", "155658.982500", "155701.592500", "155704.202500", "155706.815000", "155709.425000", "155712.035000", "155714.645000", "155717.255000", "155719.865000", "155722.477500", "155725.087500", "155727.697500", "155730.307500", "155732.917500", "155735.530000", "155738.140000", "155740.750000", "155743.360000", "155745.970000", "155748.580000", "155751.192500", "155753.802500", "155756.412500", "155759.022500", "155801.632500", "155804.242500", "155806.855000", "155809.465000", "155812.075000", "155814.685000", "155817.295000", "155819.907500", "155822.517500", "155825.127500", "155827.737500", "155830.347500", "155832.957500", "155835.570000", "155838.180000", "155840.790000", "155843.400000", "155846.010000", "155848.620000", "155851.232500", "155853.842500", "155856.452500", "155859.062500", "155901.672500", "155904.285000", "155906.895000", "155909.505000", "155912.115000", "155914.725000", "155917.335000", "155919.947500", "155922.557500", "155925.167500", "155927.777500", "155930.387500", "155932.997500", "155935.610000", "155938.220000", "155940.830000", "155943.440000", "155946.050000", "155948.662500", "155951.272500", "155953.882500", "155956.492500", "155959.102500", "160001.712500", "160004.325000", "160006.935000", "160009.545000", "160012.155000", "160014.765000", "160017.375000", "160019.987500", "160022.597500", "160025.207500", "160027.817500", "160030.427500", "160033.040000", "160035.650000", "160038.260000", "160040.870000", "160043.480000", "160046.090000", "160048.702500", "160051.312500", "160053.922500", "160056.532500", "160059.142500", "160101.752500", "160104.365000", "160106.975000", "160109.585000", "160112.195000", "160114.805000", "160117.417500", "160120.027500", "160122.637500", "160125.247500", "160127.857500", "160130.467500", "160133.080000", "160135.690000", "160138.300000", "160140.910000", "160143.520000", "160146.130000", "160148.742500", "160151.352500", "160153.962500", "160156.572500", "160159.182500", "160201.795000", "160204.405000", "160207.015000", "160209.625000", "160212.235000", "160214.845000", "160217.457500", "160220.067500", "160222.677500", "160225.287500", "160227.897500", "160230.507500", "160233.120000", "160235.730000", "160238.340000", "160240.950000", "160243.560000", "160246.172500", "160248.782500", "160251.392500", "160254.002500", "160256.612500", "160259.222500", "160301.835000", "160304.445000", "160307.055000", "160309.665000", "160312.275000", "160314.885000", "160317.497500", "160320.107500", "160322.717500", "160325.327500", "160327.937500", "160330.550000", "160333.160000", "160335.770000", "160338.380000", "160340.990000", "160343.600000", "160346.212500", "160348.822500", "160351.432500", "160354.042500", "160356.652500", "160359.262500", "160401.875000"],
      "ContentTime": ["155530.359000", "155530.359000", "155530.359000", "155530.359000", "155530.375000", "155530.375000", "155530.375000", "155530.375000", "155530.375000", "155530.375000", "155530.375000", "155530.390000", "155530.390000", "155530.390000", "155530.390000", "155530.390000", "155530.406000", "155530.406000", "155530.406000", "155530.406000", "155530.421000", "155530.421000", "155630.359000", "155630.359000", "155630.359000", "155630.359000", "155630.359000", "155630.359000", "155630.359000", "155630.375000", "155630.375000", "155630.375000", "155630.375000", "155630.375000", "155630.375000", "155630.390000", "155630.390000", "155630.390000", "155630.390000", "155630.390000", "155630.390000", "155630.390000", "155630.390000", "155630.406000", "155630.406000", "155730.359000", "155730.359000", "155730.359000", "155730.359000", "155730.359000", "155730.359000", "155730.375000", "155730.375000", "155730.375000", "155730.375000", "155730.390000", "155730.390000", "155730.390000", "155730.390000", "155730.390000", "155730.406000", "155730.406000", "155730.406000", "155730.406000", "155730.406000", "155730.406000", "155730.406000", "155730.406000", "155830.359000", "155830.359000", "155830.359000", "155830.359000", "155830.375000", "155830.375000", "155830.375000", "155830.375000", "155830.375000", "155830.375000", "155830.390000", "155830.390000", "155830.390000", "155830.390000", "155830.390000", "155830.390000", "155830.390000", "155830.390000", "155830.406000", "155830.406000", "155830.406000", "155830.406000", "155830.406000", "155930.359000", "155930.359000", "155930.359000", "155930.359000", "155930.375000", "155930.375000", "155930.375000", "155930.375000", "155930.375000", "155930.375000", "155930.375000", "155930.375000", "155930.390000", "155930.390000", "155930.390000", "155930.390000", "155930.390000", "155930.390000", "155930.390000", "155930.406000", "155930.406000", "155930.406000", "155930.406000", "160030.359000", "160030.359000", "160030.359000", "160030.359000", "160030.359000", "160030.375000", "160030.375000", "160030.375000", "160030.375000", "160030.375000", "160030.375000", "160030.375000", "160030.390000", "160030.390000", "160030.390000", "160030.390000", "160030.406000", "160030.406000", "160030.406000", "160030.406000", "160030.421000", "160030.421000", "160030.421000", "160130.343000", "160130.359000", "160130.359000", "160130.359000", "160130.359000", "160130.359000", "160130.359000", "160130.359000", "160130.375000", "160130.375000", "160130.375000", "160130.375000", "160130.375000", "160130.375000", "160130.375000", "160130.375000", "160130.390000", "160130.390000", "160130.390000", "160130.390000", "160130.390000", "160130.390000", "160130.390000", "160230.359000", "160230.359000", "160230.359000", "160230.359000", "160230.359000", "160230.359000", "160230.359000", "160230.375000", "160230.375000", "160230.375000", "160230.375000", "160230.375000", "160230.390000", "160230.390000", "160230.390000", "160230.390000", "160230.390000", "160230.390000", "160230.390000", "160230.390000", "160230.406000", "160230.406000", "160230.406000", "160330.359000", "160330.359000", "160330.359000", "160330.359000", "160330.359000", "160330.359000", "160330.375000", "160330.375000", "160330.375000", "160330.375000", "160330.390000", "160330.390000", "160330.390000", "160330.390000", "160330.390000", "160330.390000", "160330.390000", "160330.390000", "160330.406000", "160330.406000", "160330.406000", "160330.406000", "160330.421000", "160330.421000", "160409.015000", "160409.015000", "160409.015000", "160409.015000", "160409.015000", "160409.015000", "160409.015000", "160409.015000", "160409.031000", "160409.031000", "160409.031000", "160409.031000", "160409.031000"],
      "InstanceCreationTime": ["155530.359000", "155530.359000", "155530.359000", "155530.359000", "155530.375000", "155530.375000", "155530.375000", "155530.375000", "155530.375000", "155530.375000", "155530.375000", "155530.390000", "155530.390000", "155530.390000", "155530.390000", "155530.390000", "155530.406000", "155530.406000", "155530.406000", "155530.406000", "155530.421000", "155530.421000", "155630.359000", "155630.359000", "155630.359000", "155630.359000", "155630.359000", "155630.359000", "155630.359000", "155630.375000", "155630.375000", "155630.375000", "155630.375000", "155630.375000", "155630.375000", "155630.390000", "155630.390000", "155630.390000", "155630.390000", "155630.390000", "155630.390000", "155630.390000", "155630.390000", "155630.406000", "155630.406000", "155730.359000", "155730.359000", "155730.359000", "155730.359000", "155730.359000", "155730.359000", "155730.375000", "155730.375000", "155730.375000", "155730.375000", "155730.390000", "155730.390000", "155730.390000", "155730.390000", "155730.390000", "155730.406000", "155730.406000", "155730.406000", "155730.406000", "155730.406000", "155730.406000", "155730.406000", "155730.406000", "155830.359000", "155830.359000", "155830.359000", "155830.359000", "155830.375000", "155830.375000", "155830.375000", "155830.375000", "155830.375000", "155830.375000", "155830.390000", "155830.390000", "155830.390000", "155830.390000", "155830.390000", "155830.390000", "155830.390000", "155830.390000", "155830.406000", "155830.406000", "155830.406000", "155830.406000", "155830.406000", "155930.359000", "155930.359000", "155930.359000", "155930.359000", "155930.375000", "155930.375000", "155930.375000", "155930.375000", "155930.375000", "155930.375000", "155930.375000", "155930.375000", "155930.390000", "155930.390000", "155930.390000", "155930.390000", "155930.390000", "155930.390000", "155930.390000", "155930.406000", "155930.406000", "155930.406000", "155930.406000", "160030.359000", "160030.359000", "160030.359000", "160030.359000", "160030.359000", "160030.375000", "160030.375000", "160030.375000", "160030.375000", "160030.375000", "160030.375000", "160030.375000", "160030.390000", "160030.390000", "160030.390000", "160030.390000", "160030.406000", "160030.406000", "160030.406000", "160030.406000", "160030.421000", "160030.421000", "160030.421000", "160130.343000", "160130.359000", "160130.359000", "160130.359000", "160130.359000", "160130.359000", "160130.359000", "160130.359000", "160130.375000", "160130.375000", "160130.375000", "160130.375000", "160130.375000", "160130.375000", "160130.375000", "160130.375000", "160130.390000", "160130.390000", "160130.390000", "160130.390000", "160130.390000", "160130.390000", "160130.390000", "160230.359000", "160230.359000", "160230.359000", "160230.359000", "160230.359000", "160230.359000", "160230.359000", "160230.375000", "160230.375000", "160230.375000", "160230.375000", "160230.375000", "160230.390000", "160230.390000", "160230.390000", "160230.390000", "160230.390000", "160230.390000", "160230.390000", "160230.390000", "160230.406000", "160230.406000", "160230.406000", "160330.359000", "160330.359000", "160330.359000", "160330.359000", "160330.359000", "160330.359000", "160330.375000", "160330.375000", "160330.375000", "160330.375000", "160330.390000", "160330.390000", "160330.390000", "160330.390000", "160330.390000", "160330.390000", "160330.390000", "160330.390000", "160330.406000", "160330.406000", "160330.406000", "160330.406000", "160330.421000", "160330.421000", "160409.015000", "160409.015000", "160409.015000", "160409.015000", "160409.015000", "160409.015000", "160409.015000", "160409.015000", "160409.031000", "160409.031000", "160409.031000", "160409.031000", "160409.031000"],
      "InstanceNumber": [1, 2, 3, 4, 5, 6, 7, 8, 9, 10, 11, 12, 13, 14, 15, 16, 17, 18, 19, 20, 21, 22, 23, 24, 25, 26, 27, 28, 29, 30, 31, 32, 33, 34, 35, 36, 37, 38, 39, 40, 41, 42, 43, 44, 45, 46, 47, 48, 49, 50, 51, 52, 53, 54, 55, 56, 57, 58, 59, 60, 61, 62, 63, 64, 65, 66, 67, 68, 69, 70, 71, 72, 73, 74, 75, 76, 77, 78, 79, 80, 81, 82, 83, 84, 85, 86, 87, 88, 89, 90, 91, 92, 93, 94, 95, 96, 97, 98, 99, 100, 101, 102, 103, 104, 105, 106, 107, 108, 109, 110, 111, 112, 113, 114, 115, 116, 117, 118, 119, 120, 121, 122, 123, 124, 125, 126, 127, 128, 129, 130, 131, 132, 133, 134, 135, 136, 137, 138, 139, 140, 141, 142, 143, 144, 145, 146, 147, 148, 149, 150, 151, 152, 153, 154, 155, 156, 157, 158, 159, 160, 161, 162, 163, 164, 165, 166, 167, 168, 169, 170, 171, 172, 173, 174, 175, 176, 177, 178, 179, 180, 181, 182, 183, 184, 185, 186, 187, 188, 189, 190, 191, 192, 193, 194, 195, 196, 197, 198, 199, 200, 201, 202, 203, 204, 205, 206, 207, 208, 209, 210, 211, 212, 213, 214, 215, 216, 217, 218, 219, 220],
      "WindowCenter": [979.0, 976.0, 977.0, 979.0, 977.0, 981.0, 981.0, 978.0, 976.0, 977.0, 978.0, 978.0, 977.0, 978.0, 980.0, 980.0, 978.0, 978.0, 980.0, 981.0, 979.0, 983.0, 982.0, 978.0, 978.0, 979.0, 979.0, 976.0, 975.0, 979.0, 981.0, 979.0, 978.0, 978.0, 979.0, 978.0, 979.0, 979.0, 978.0, 977.0, 979.0, 979.0, 978.0, 981.0, 979.0, 981.0, 983.0, 979.0, 980.0, 981.0, 982.0, 981.0, 980.0, 979.0, 978.0, 978.0, 977.0, 979.0, 979.0, 978.0, 978.0, 978.0, 979.0, 981.0, 984.0, 981.0, 981.0, 980.0, 979.0, 982.0, 981.0, 983.0, 983.0, 977.0, 979.0, 981.0, 980.0, 978.0, 978.0, 979.0, 980.0, 979.0, 978.0, 979.0, 981.0, 983.0, 982.0, 982.0, 983.0, 983.0, 979.0, 977.0, 978.0, 981.0, 980.0, 979.0, 979.0, 979.0, 978.0, 977.0, 979.0, 979.0, 979.0, 982.0, 978.0, 981.0, 983.0, 982.0, 981.0, 978.0, 977.0, 976.0, 981.0, 981.0, 980.0, 980.0, 979.0, 982.0, 981.0, 980.0, 979.0, 978.0, 979.0, 980.0, 982.0, 979.0, 979.0, 979.0, 979.0, 979.0, 979.0, 980.0, 980.0, 978.0, 981.0, 983.0, 982.0, 981.0, 982.0, 981.0, 979.0, 982.0, 982.0, 982.0, 982.0, 981.0, 981.0, 982.0, 983.0, 981.0, 980.0, 980.0, 982.0, 982.0, 979.0, 981.0, 983.0, 983.0, 980.0, 978.0, 978.0, 978.0, 978.0, 977.0, 978.0, 979.0, 979.0, 979.0, 979.0, 980.0, 981.0, 982.0, 981.0, 981.0, 981.0, 980.0, 981.0, 981.0, 981.0, 981.0, 981.0, 981.0, 981.0, 981.0, 981.0, 982.0, 981.0, 981.0, 982.0, 981.0, 980.0, 981.0, 982.0, 980.0, 982.0, 981.0, 980.0, 980.0, 981.0, 982.0, 980.0, 978.0, 981.0, 980.0, 979.0, 979.0, 981.0, 980.0, 980.0, 979.0, 979.0, 980.0, 979.0, 979.0, 980.0, 980.0, 981.0, 976.0, 983.0, 984.0],
      "WindowWidth": [2223.0, 2218.0, 2221.0, 2227.0, 2222.0, 2233.0, 2232.0, 2220.0, 2217.0, 2219.0, 2221.0, 2221.0, 2218.0, 2223.0, 2229.0, 2227.0, 2222.0, 2222.0, 2228.0, 2229.0, 2225.0, 2238.0, 2230.0, 2223.0, 2222.0, 2226.0, 2224.0, 2217.0, 2215.0, 2225.0, 2230.0, 2225.0, 2222.0, 2223.0, 2223.0, 2222.0, 2224.0, 2224.0, 2221.0, 2220.0, 2225.0, 2223.0, 2222.0, 2231.0, 2224.0, 2231.0, 2234.0, 2224.0, 2226.0, 2229.0, 2232.0, 2231.0, 2227.0, 2224.0, 2222.0, 2219.0, 2218.0, 2225.0, 2222.0, 2220.0, 2221.0, 2221.0, 2223.0, 2230.0, 2239.0, 2227.0, 2229.0, 2223.0, 2222.0, 2233.0, 2228.0, 2236.0, 2232.0, 2219.0, 2223.0, 2232.0, 2227.0, 2220.0, 2221.0, 2224.0, 2226.0, 2222.0, 2220.0, 2224.0, 2231.0, 2236.0, 2233.0, 2232.0, 2236.0, 2233.0, 2222.0, 2217.0, 2223.0, 2230.0, 2226.0, 2222.0, 2225.0, 2224.0, 2219.0, 2218.0, 2226.0, 2222.0, 2226.0, 2233.0, 2220.0, 2231.0, 2235.0, 2235.0, 2229.0, 2221.0, 2218.0, 2215.0, 2231.0, 2229.0, 2229.0, 2227.0, 2226.0, 2233.0, 2231.0, 2227.0, 2224.0, 2222.0, 2226.0, 2227.0, 2233.0, 2223.0, 2224.0, 2226.0, 2226.0, 2223.0, 2224.0, 2226.0, 2227.0, 2219.0, 2231.0, 2236.0, 2232.0, 2229.0, 2231.0, 2227.0, 2224.0, 2232.0, 2233.0, 2233.0, 2230.0, 2228.0, 2228.0, 2233.0, 2236.0, 2228.0, 2225.0, 2227.0, 2234.0, 2232.0, 2222.0, 2231.0, 2238.0, 2236.0, 2224.0, 2221.0, 2220.0, 2221.0, 2221.0, 2218.0, 2221.0, 2222.0, 2223.0, 2225.0, 2223.0, 2225.0, 2228.0, 2231.0, 2230.0, 2229.0, 2228.0, 2227.0, 2230.0, 2229.0, 2228.0, 2229.0, 2229.0, 2229.0, 2229.0, 2230.0, 2230.0, 2230.0, 2228.0, 2229.0, 2232.0, 2229.0, 2226.0, 2231.0, 2232.0, 2227.0, 2231.0, 2227.0, 2225.0, 2227.0, 2230.0, 2233.0, 2224.0, 2221.0, 2231.0, 2228.0, 2223.0, 2225.0, 2229.0, 2226.0, 2227.0, 2224.0, 2226.0, 2226.0, 2226.0, 2225.0, 2227.0, 2226.0, 2229.0, 2215.0, 2237.0, 2239.0]
    },
    "slices": {}
  }
}