{
  "AcquisitionMatrixPE": 188,
  "AcquisitionNumber": 1,
  "AcquisitionTime": "16:05:22.205000",
  "BandwidthPerPixelPhaseEncode": 19.46,
  "BaseResolution": 188,
  "ConversionSoftware": "dcm2niix",
  "ConversionSoftwareVersion": "v1.0.20180606 GCC4.8.5",
  "DelayTime": 1.2,
  "DerivedVendorReportedEchoSpacing": 0.000820013,
  "DeviceSerialNumber": "18930",
  "DwellTime": 1.9e-06,
  "EchoTime": 0.02,
  "EffectiveEchoSpacing": 0.000273338,
  "FlipAngle": 80,
  "ImageComments": "Unaliased_MB2_PE2",
  "ImageOrientationPatientDICOM": [0.997146, 0.0655968, -0.0373852, -0.0554599, 0.300366, -0.95221],
  "ImageType": [
    "ORIGINAL",
    "PRIMARY",
    "M",
    "MB",
    "ND",
    "MOSAIC"
],
  "InPlanePhaseEncodingDirectionDICOM": "COL",
  "InstitutionAddress": "Oxfordlaan_55_Maastricht_Limburg_NL_6229_EV",
  "InstitutionName": "Scannexus",
  "InstitutionalDepartmentName": "MRI_7T",
  "MRAcquisitionType": "2D",
  "MagneticFieldStrength": 6.98,
  "Manufacturer": "Siemens",
  "ManufacturersModelName": "Investigational_Device_7T",
  "Modality": "MR",
  "MultibandAccelerationFactor": 2,
  "ParallelReductionFactorInPlane": 3,
  "PartialFourier": 0.75,
  "PatientPosition": "HFS",
  "PercentPhaseFOV": 100,
  "PhaseEncodingDirection": "j",
  "PhaseEncodingSteps": 141,
  "PhaseResolution": 1,
  "PixelBandwidth": 1400,
  "ProcedureStepDescription": "FeDem_Faruk",
  "ProtocolName": "cmrr_mbep2d_bold_AP_run8",
  "PulseSequenceDetails": "%CustomerSeq%_cmrr_mbep2d_bold",
  "ReceiveCoilName": "32Ch_Head_7T",
  "ReconMatrixPE": 188,
  "RepetitionTime": 2.6,
  "SAR": 0.0632034,
  "ScanOptions": "PFP_FS",
  "ScanningSequence": "EP",
  "SequenceName": "epfid2d1_188",
  "SequenceVariant": "SK_SS",
  "SeriesDescription": "cmrr_mbep2d_bold_AP_run8",
  "SeriesNumber": 17,
  "ShimSetting": [70, -194, 546, 562, -84, -161, 15, 129],
  "SliceThickness": 1.1,
  "SliceTiming": [0, 0.735, 0.0625, 0.795, 0.1225, 0.855, 0.185, 0.9175, 0.245, 0.9775, 0.3075, 1.04, 0.3675, 1.1, 0.4275, 1.1625, 0.49, 1.2225, 0.55, 1.285, 0.6125, 1.345, 0.6725, 0, 0.735, 0.0625, 0.795, 0.1225, 0.855, 0.185, 0.9175, 0.245, 0.9775, 0.3075, 1.04, 0.3675, 1.1, 0.4275, 1.1625, 0.49, 1.2225, 0.55, 1.285, 0.6125, 1.345, 0.6725],
  "SoftwareVersions": "syngo_MR_B17",
  "SpacingBetweenSlices": 1.1,
  "StationName": "MRC18930",
  "TaskName": "auditory",
  "TotalReadoutTime": 0.0511141,
  "TxRefAmp": 250,
  "dcmmeta_affine": [
    [-1.0926170349121094, -0.06076992675662041, 0.05635593459010124, 105.78306579589844],
    [-0.07187733054161072, 0.3291241228580475, -1.0467216968536377, 13.95902156829834],
    [-0.04096466675400734, 1.043379545211792, 0.3334607481956482, -109.1678466796875],
    [0.0, 0.0, 0.0, 1.0]
],
  "dcmmeta_reorient_transform": [
    [0.0, -1.0, 0.0, 187.0],
    [1.0, 0.0, 0.0, 0.0],
    [0.0, 0.0, 1.0, 0.0],
    [0.0, 0.0, 0.0, 1.0]
],
  "dcmmeta_shape": [188, 188, 46, 220],
  "dcmmeta_slice_dim": 2,
  "dcmmeta_version": 0.6,
  "global": {
    "const": {
      "AcquisitionMatrix": [188, 0, 0, 188],
      "AngioFlag": "N",
      "BitsAllocated": 16,
      "BitsStored": 12,
      "Columns": 1316,
      "EchoNumbers": 1,
      "EchoTime": 20.0,
      "EchoTrainLength": 1,
      "FlipAngle": 80.0,
      "HighBit": 11,
      "ImageOrientationPatient": [0.99714562963932, 0.06559678296431, -0.0373852291144, -0.0554599301747, 0.30036568996081, -0.9522104013501],
      "ImagePositionPatient": [-676.38087808259, -301.67005077497, 697.51424994947],
      "ImageType": [
        "ORIGINAL",
        "PRIMARY",
        "M",
        "MB",
        "ND",
        "MOSAIC"
],
      "ImagedNucleus": "1H",
      "ImagingFrequency": 297.205436,
      "InPlanePhaseEncodingDirection": "COL",
      "LargestImagePixelValue": 4095,
      "MRAcquisitionType": "2D",
      "MagneticFieldStrength": 6.98,
      "Manufacturer": "SIEMENS",
      "ManufacturerModelName": "Investigational_Device_7T",
      "Modality": "MR",
      "NumberOfAverages": 1.0,
      "NumberOfPhaseEncodingSteps": 141,
      "PercentPhaseFieldOfView": 100.0,
      "PercentSampling": 100.0,
      "PerformedProcedureStepStartTime": "141500.968000",
      "PhotometricInterpretation": "MONOCHROME2",
      "PixelBandwidth": 1400.0,
      "PixelRepresentation": 0,
      "PixelSpacing": [1.0957447290421, 1.0957447290421],
      "ProtocolName": "cmrr_mbep2d_bold_AP_run8",
      "RepetitionTime": 2600.0,
      "Rows": 1316,
      "SAR": 0.0632033632169,
      "SamplesPerPixel": 1,
      "ScanOptions": [
        "PFP",
        "FS"
],
      "ScanningSequence": "EP",
      "SequenceName": "epfid2d1_188",
      "SequenceVariant": [
        "SK",
        "SS"
],
      "SeriesDescription": "cmrr_mbep2d_bold_AP_run8",
      "SeriesNumber": 17,
      "SeriesTime": "160629.234000",
      "SliceLocation": -40.957208464512,
      "SliceThickness": 1.1000000238419,
      "SmallestImagePixelValue": 0,
      "SoftwareVersions": "syngo MR B17",
      "SpacingBetweenSlices": 1.0999993098325,
      "SpecificCharacterSet": "ISO_IR 100",
      "StudyID": "1",
      "StudyTime": "141500.890000",
      "TransmitCoilName": "32Ch_Head_7T",
      "VariableFlipAngleFlag": "N",
      "WindowCenterWidthExplanation": "Algo1",
      "dBdt": 0.0},
    "slices": {}
  },
  "time": {
    "samples": {
      "AcquisitionNumber": [1, 2, 3, 4, 5, 6, 7, 8, 9, 10, 11, 12, 13, 14, 15, 16, 17, 18, 19, 20, 21, 22, 23, 24, 25, 26, 27, 28, 29, 30, 31, 32, 33, 34, 35, 36, 37, 38, 39, 40, 41, 42, 43, 44, 45, 46, 47, 48, 49, 50, 51, 52, 53, 54, 55, 56, 57, 58, 59, 60, 61, 62, 63, 64, 65, 66, 67, 68, 69, 70, 71, 72, 73, 74, 75, 76, 77, 78, 79, 80, 81, 82, 83, 84, 85, 86, 87, 88, 89, 90, 91, 92, 93, 94, 95, 96, 97, 98, 99, 100, 101, 102, 103, 104, 105, 106, 107, 108, 109, 110, 111, 112, 113, 114, 115, 116, 117, 118, 119, 120, 121, 122, 123, 124, 125, 126, 127, 128, 129, 130, 131, 132, 133, 134, 135, 136, 137, 138, 139, 140, 141, 142, 143, 144, 145, 146, 147, 148, 149, 150, 151, 152, 153, 154, 155, 156, 157, 158, 159, 160, 161, 162, 163, 164, 165, 166, 167, 168, 169, 170, 171, 172, 173, 174, 175, 176, 177, 178, 179, 180, 181, 182, 183, 184, 185, 186, 187, 188, 189, 190, 191, 192, 193, 194, 195, 196, 197, 198, 199, 200, 201, 202, 203, 204, 205, 206, 207, 208, 209, 210, 211, 212, 213, 214, 215, 216, 217, 218, 219, 220],
      "AcquisitionTime": ["160522.205000", "160524.815000", "160527.427500", "160530.037500", "160532.647500", "160535.257500", "160537.867500", "160540.480000", "160543.090000", "160545.700000", "160548.310000", "160550.920000", "160553.530000", "160556.142500", "160558.752500", "160601.362500", "160603.972500", "160606.582500", "160609.192500", "160611.805000", "160614.415000", "160617.025000", "160619.635000", "160622.245000", "160624.857500", "160627.467500", "160630.077500", "160632.687500", "160635.297500", "160637.907500", "160640.520000", "160643.130000", "160645.740000", "160648.350000", "160650.960000", "160653.570000", "160656.182500", "160658.792500", "160701.402500", "160704.012500", "160706.622500", "160709.235000", "160711.845000", "160714.455000", "160717.065000", "160719.675000", "160722.285000", "160724.897500", "160727.507500", "160730.117500", "160732.727500", "160735.337500", "160737.947500", "160740.560000", "160743.170000", "160745.780000", "160748.390000", "160751.000000", "160753.612500", "160756.222500", "160758.832500", "160801.442500", "160804.052500", "160806.662500", "160809.275000", "160811.885000", "160814.495000", "160817.105000", "160819.715000", "160822.325000", "160824.937500", "160827.547500", "160830.157500", "160832.767500", "160835.377500", "160837.990000", "160840.600000", "160843.210000", "160845.820000", "160848.430000", "160851.040000", "160853.652500", "160856.262500", "160858.872500", "160901.482500", "160904.092500", "160906.705000", "160909.315000", "160911.925000", "160914.535000", "160917.145000", "160919.755000", "160922.367500", "160924.977500", "160927.587500", "160930.197500", "160932.807500", "160935.417500", "160938.030000", "160940.640000", "160943.250000", "160945.860000", "160948.470000", "160951.082500", "160953.692500", "160956.302500", "160958.912500", "161001.522500", "161004.132500", "161006.745000", "161009.355000", "161011.965000", "161014.575000", "161017.185000", "161019.795000", "161022.407500", "161025.017500", "161027.627500", "161030.237500", "161032.847500", "161035.460000", "161038.070000", "161040.680000", "161043.290000", "161045.900000", "161048.510000", "161051.122500", "161053.732500", "161056.342500", "161058.952500", "161101.562500", "161104.172500", "161106.785000", "161109.395000", "161112.005000", "161114.615000", "161117.225000", "161119.837500", "161122.447500", "161125.057500", "161127.667500", "161130.277500", "161132.887500", "161135.500000", "161138.110000", "161140.720000", "161143.330000", "161145.940000", "161148.550000", "161151.162500", "161153.772500", "161156.382500", "161158.992500", "161201.602500", "161204.215000", "161206.825000", "161209.435000", "161212.045000", "161214.655000", "161217.265000", "161219.877500", "161222.487500", "161225.097500", "161227.707500", "161230.317500", "161232.927500", "161235.540000", "161238.150000", "161240.760000", "161243.370000", "161245.980000", "161248.592500", "161251.202500", "161253.812500", "161256.422500", "161259.032500", "161301.642500", "161304.255000", "161306.865000", "161309.475000", "161312.085000", "161314.695000", "161317.305000", "161319.917500", "161322.527500", "161325.137500", "161327.747500", "161330.357500", "161332.970000", "161335.580000", "161338.190000", "161340.800000", "161343.410000", "161346.020000", "161348.632500", "161351.242500", "161353.852500", "161356.462500", "161359.072500", "161401.682500", "161404.295000", "161406.905000", "161409.515000", "161412.125000", "161414.735000", "161417.347500", "161419.957500", "161422.567500", "161425.177500", "161427.787500", "161430.397500", "161433.010000", "161435.620000", "161438.230000", "161440.840000", "161443.450000", "161446.060000", "161448.672500", "161451.282500", "161453.892500"],
      "ContentTime": ["160629.234000", "160629.234000", "160629.234000", "160629.234000", "160629.250000", "160629.250000", "160629.250000", "160629.250000", "160629.250000", "160629.250000", "160629.250000", "160629.250000", "160629.265000", "160629.265000", "160629.265000", "160629.265000", "160629.265000", "160629.265000", "160629.281000", "160629.281000", "160629.281000", "160629.281000", "160629.281000", "160629.281000", "160629.281000", "160729.234000", "160729.234000", "160729.234000", "160729.234000", "160729.234000", "160729.234000", "160729.234000", "160729.250000", "160729.250000", "160729.250000", "160729.250000", "160729.250000", "160729.250000", "160729.250000", "160729.250000", "160729.265000", "160729.265000", "160729.265000", "160729.265000", "160729.265000", "160729.281000", "160729.281000", "160729.281000", "160829.218000", "160829.234000", "160829.234000", "160829.234000", "160829.234000", "160829.234000", "160829.250000", "160829.250000", "160829.250000", "160829.250000", "160829.250000", "160829.250000", "160829.250000", "160829.265000", "160829.265000", "160829.265000", "160829.265000", "160829.265000", "160829.265000", "160829.265000", "160829.265000", "160829.281000", "160829.281000", "160929.234000", "160929.234000", "160929.234000", "160929.234000", "160929.234000", "160929.234000", "160929.234000", "160929.250000", "160929.250000", "160929.250000", "160929.250000", "160929.250000", "160929.265000", "160929.265000", "160929.265000", "160929.265000", "160929.265000", "160929.281000", "160929.281000", "160929.281000", "160929.281000", "160929.281000", "160929.281000", "161029.234000", "161029.234000", "161029.234000", "161029.234000", "161029.234000", "161029.234000", "161029.234000", "161029.250000", "161029.250000", "161029.250000", "161029.250000", "161029.250000", "161029.250000", "161029.250000", "161029.250000", "161029.265000", "161029.265000", "161029.265000", "161029.265000", "161029.265000", "161029.265000", "161029.281000", "161029.281000", "161129.234000", "161129.234000", "161129.234000", "161129.250000", "161129.250000", "161129.250000", "161129.250000", "161129.250000", "161129.250000", "161129.265000", "161129.265000", "161129.265000", "161129.265000", "161129.265000", "161129.265000", "161129.265000", "161129.281000", "161129.281000", "161129.281000", "161129.281000", "161129.281000", "161129.281000", "161129.281000", "161229.234000", "161229.234000", "161229.234000", "161229.234000", "161229.234000", "161229.234000", "161229.234000", "161229.250000", "161229.250000", "161229.250000", "161229.250000", "161229.250000", "161229.250000", "161229.250000", "161229.250000", "161229.265000", "161229.265000", "161229.265000", "161229.265000", "161229.265000", "161229.265000", "161229.265000", "161229.265000", "161329.234000", "161329.234000", "161329.234000", "161329.234000", "161329.250000", "161329.250000", "161329.250000", "161329.250000", "161329.250000", "161329.250000", "161329.250000", "161329.250000", "161329.265000", "161329.265000", "161329.265000", "161329.265000", "161329.265000", "161329.265000", "161329.265000", "161329.265000", "161329.281000", "161329.281000", "161329.281000", "161429.234000", "161429.234000", "161429.234000", "161429.234000", "161429.234000", "161429.250000", "161429.250000", "161429.250000", "161429.265000", "161429.265000", "161429.265000", "161429.265000", "161429.265000", "161429.281000", "161429.281000", "161429.281000", "161429.281000", "161429.281000", "161429.281000", "161429.281000", "161429.281000", "161429.296000", "161429.296000", "161500.921000", "161500.921000", "161500.937000", "161500.937000", "161500.937000", "161500.937000", "161500.937000", "161500.937000", "161500.937000", "161500.953000", "161500.953000"],
      "InstanceCreationTime": ["160629.234000", "160629.234000", "160629.234000", "160629.234000", "160629.250000", "160629.250000", "160629.250000", "160629.250000", "160629.250000", "160629.250000", "160629.250000", "160629.250000", "160629.265000", "160629.265000", "160629.265000", "160629.265000", "160629.265000", "160629.265000", "160629.281000", "160629.281000", "160629.281000", "160629.281000", "160629.281000", "160629.281000", "160629.281000", "160729.234000", "160729.234000", "160729.234000", "160729.234000", "160729.234000", "160729.234000", "160729.234000", "160729.250000", "160729.250000", "160729.250000", "160729.250000", "160729.250000", "160729.250000", "160729.250000", "160729.250000", "160729.265000", "160729.265000", "160729.265000", "160729.265000", "160729.265000", "160729.281000", "160729.281000", "160729.281000", "160829.218000", "160829.234000", "160829.234000", "160829.234000", "160829.234000", "160829.234000", "160829.250000", "160829.250000", "160829.250000", "160829.250000", "160829.250000", "160829.250000", "160829.250000", "160829.265000", "160829.265000", "160829.265000", "160829.265000", "160829.265000", "160829.265000", "160829.265000", "160829.265000", "160829.281000", "160829.281000", "160929.234000", "160929.234000", "160929.234000", "160929.234000", "160929.234000", "160929.234000", "160929.234000", "160929.250000", "160929.250000", "160929.250000", "160929.250000", "160929.250000", "160929.265000", "160929.265000", "160929.265000", "160929.265000", "160929.265000", "160929.281000", "160929.281000", "160929.281000", "160929.281000", "160929.281000", "160929.281000", "161029.234000", "161029.234000", "161029.234000", "161029.234000", "161029.234000", "161029.234000", "161029.234000", "161029.250000", "161029.250000", "161029.250000", "161029.250000", "161029.250000", "161029.250000", "161029.250000", "161029.250000", "161029.265000", "161029.265000", "161029.265000", "161029.265000", "161029.265000", "161029.265000", "161029.281000", "161029.281000", "161129.234000", "161129.234000", "161129.234000", "161129.250000", "161129.250000", "161129.250000", "161129.250000", "161129.250000", "161129.250000", "161129.265000", "161129.265000", "161129.265000", "161129.265000", "161129.265000", "161129.265000", "161129.265000", "161129.281000", "161129.281000", "161129.281000", "161129.281000", "161129.281000", "161129.281000", "161129.281000", "161229.234000", "161229.234000", "161229.234000", "161229.234000", "161229.234000", "161229.234000", "161229.234000", "161229.250000", "161229.250000", "161229.250000", "161229.250000", "161229.250000", "161229.250000", "161229.250000", "161229.250000", "161229.265000", "161229.265000", "161229.265000", "161229.265000", "161229.265000", "161229.265000", "161229.265000", "161229.265000", "161329.234000", "161329.234000", "161329.234000", "161329.234000", "161329.250000", "161329.250000", "161329.250000", "161329.250000", "161329.250000", "161329.250000", "161329.250000", "161329.250000", "161329.265000", "161329.265000", "161329.265000", "161329.265000", "161329.265000", "161329.265000", "161329.265000", "161329.265000", "161329.281000", "161329.281000", "161329.281000", "161429.234000", "161429.234000", "161429.234000", "161429.234000", "161429.234000", "161429.250000", "161429.250000", "161429.250000", "161429.265000", "161429.265000", "161429.265000", "161429.265000", "161429.265000", "161429.281000", "161429.281000", "161429.281000", "161429.281000", "161429.281000", "161429.281000", "161429.281000", "161429.281000", "161429.296000", "161429.296000", "161500.921000", "161500.921000", "161500.937000", "161500.937000", "161500.937000", "161500.937000", "161500.937000", "161500.937000", "161500.937000", "161500.953000", "161500.953000"],
      "InstanceNumber": [1, 2, 3, 4, 5, 6, 7, 8, 9, 10, 11, 12, 13, 14, 15, 16, 17, 18, 19, 20, 21, 22, 23, 24, 25, 26, 27, 28, 29, 30, 31, 32, 33, 34, 35, 36, 37, 38, 39, 40, 41, 42, 43, 44, 45, 46, 47, 48, 49, 50, 51, 52, 53, 54, 55, 56, 57, 58, 59, 60, 61, 62, 63, 64, 65, 66, 67, 68, 69, 70, 71, 72, 73, 74, 75, 76, 77, 78, 79, 80, 81, 82, 83, 84, 85, 86, 87, 88, 89, 90, 91, 92, 93, 94, 95, 96, 97, 98, 99, 100, 101, 102, 103, 104, 105, 106, 107, 108, 109, 110, 111, 112, 113, 114, 115, 116, 117, 118, 119, 120, 121, 122, 123, 124, 125, 126, 127, 128, 129, 130, 131, 132, 133, 134, 135, 136, 137, 138, 139, 140, 141, 142, 143, 144, 145, 146, 147, 148, 149, 150, 151, 152, 153, 154, 155, 156, 157, 158, 159, 160, 161, 162, 163, 164, 165, 166, 167, 168, 169, 170, 171, 172, 173, 174, 175, 176, 177, 178, 179, 180, 181, 182, 183, 184, 185, 186, 187, 188, 189, 190, 191, 192, 193, 194, 195, 196, 197, 198, 199, 200, 201, 202, 203, 204, 205, 206, 207, 208, 209, 210, 211, 212, 213, 214, 215, 216, 217, 218, 219, 220],
      "WindowCenter": [978.0, 977.0, 976.0, 976.0, 975.0, 975.0, 975.0, 975.0, 976.0, 976.0, 978.0, 977.0, 977.0, 976.0, 979.0, 979.0, 980.0, 979.0, 978.0, 977.0, 978.0, 978.0, 979.0, 979.0, 978.0, 978.0, 976.0, 976.0, 979.0, 978.0, 977.0, 977.0, 978.0, 976.0, 976.0, 976.0, 976.0, 974.0, 977.0, 977.0, 976.0, 975.0, 976.0, 975.0, 978.0, 976.0, 974.0, 976.0, 978.0, 978.0, 978.0, 978.0, 977.0, 977.0, 977.0, 977.0, 977.0, 978.0, 977.0, 976.0, 979.0, 978.0, 979.0, 976.0, 977.0, 977.0, 977.0, 978.0, 975.0, 975.0, 978.0, 976.0, 975.0, 977.0, 977.0, 976.0, 976.0, 976.0, 976.0, 977.0, 978.0, 978.0, 978.0, 976.0, 979.0, 980.0, 980.0, 979.0, 978.0, 978.0, 978.0, 978.0, 977.0, 977.0, 978.0, 978.0, 978.0, 978.0, 978.0, 979.0, 979.0, 978.0, 978.0, 978.0, 977.0, 978.0, 977.0, 979.0, 977.0, 977.0, 976.0, 976.0, 976.0, 977.0, 977.0, 977.0, 978.0, 978.0, 977.0, 978.0, 977.0, 981.0, 980.0, 977.0, 977.0, 979.0, 980.0, 978.0, 978.0, 979.0, 979.0, 979.0, 977.0, 979.0, 980.0, 981.0, 981.0, 980.0, 979.0, 978.0, 979.0, 979.0, 978.0, 978.0, 980.0, 978.0, 975.0, 977.0, 980.0, 978.0, 979.0, 977.0, 979.0, 978.0, 977.0, 978.0, 978.0, 977.0, 976.0, 975.0, 977.0, 976.0, 976.0, 977.0, 976.0, 976.0, 977.0, 977.0, 976.0, 977.0, 978.0, 978.0, 976.0, 977.0, 977.0, 978.0, 978.0, 978.0, 977.0, 977.0, 979.0, 980.0, 976.0, 983.0, 979.0, 979.0, 979.0, 979.0, 978.0, 978.0, 978.0, 977.0, 979.0, 979.0, 978.0, 979.0, 980.0, 980.0, 980.0, 979.0, 978.0, 979.0, 980.0, 980.0, 978.0, 979.0, 979.0, 978.0, 978.0, 978.0, 976.0, 978.0, 979.0, 977.0, 977.0, 978.0, 978.0, 978.0, 980.0, 978.0],
      "WindowWidth": [2226.0, 2223.0, 2221.0, 2219.0, 2218.0, 2218.0, 2218.0, 2217.0, 2219.0, 2221.0, 2224.0, 2222.0, 2221.0, 2220.0, 2228.0, 2229.0, 2230.0, 2228.0, 2225.0, 2222.0, 2224.0, 2224.0, 2226.0, 2225.0, 2224.0, 2226.0, 2218.0, 2220.0, 2228.0, 2223.0, 2221.0, 2222.0, 2225.0, 2220.0, 2220.0, 2218.0, 2220.0, 2214.0, 2223.0, 2223.0, 2220.0, 2217.0, 2219.0, 2217.0, 2225.0, 2219.0, 2215.0, 2221.0, 2226.0, 2227.0, 2226.0, 2225.0, 2223.0, 2223.0, 2222.0, 2222.0, 2223.0, 2225.0, 2221.0, 2219.0, 2230.0, 2226.0, 2229.0, 2222.0, 2222.0, 2225.0, 2224.0, 2225.0, 2217.0, 2218.0, 2227.0, 2219.0, 2218.0, 2223.0, 2222.0, 2219.0, 2220.0, 2220.0, 2220.0, 2222.0, 2224.0, 2225.0, 2226.0, 2220.0, 2228.0, 2230.0, 2230.0, 2227.0, 2225.0, 2226.0, 2224.0, 2223.0, 2222.0, 2223.0, 2225.0, 2224.0, 2225.0, 2225.0, 2224.0, 2228.0, 2227.0, 2224.0, 2225.0, 2226.0, 2223.0, 2225.0, 2222.0, 2227.0, 2221.0, 2224.0, 2221.0, 2218.0, 2220.0, 2221.0, 2222.0, 2223.0, 2224.0, 2224.0, 2222.0, 2225.0, 2223.0, 2233.0, 2230.0, 2221.0, 2223.0, 2227.0, 2229.0, 2223.0, 2225.0, 2227.0, 2226.0, 2226.0, 2223.0, 2229.0, 2231.0, 2232.0, 2231.0, 2230.0, 2226.0, 2226.0, 2227.0, 2226.0, 2224.0, 2225.0, 2230.0, 2224.0, 2216.0, 2224.0, 2231.0, 2225.0, 2226.0, 2222.0, 2230.0, 2225.0, 2222.0, 2225.0, 2226.0, 2222.0, 2219.0, 2218.0, 2225.0, 2219.0, 2219.0, 2224.0, 2220.0, 2221.0, 2223.0, 2223.0, 2221.0, 2223.0, 2225.0, 2226.0, 2219.0, 2223.0, 2224.0, 2226.0, 2226.0, 2225.0, 2224.0, 2224.0, 2228.0, 2230.0, 2222.0, 2240.0, 2229.0, 2228.0, 2228.0, 2227.0, 2226.0, 2227.0, 2223.0, 2223.0, 2230.0, 2226.0, 2225.0, 2229.0, 2230.0, 2231.0, 2231.0, 2228.0, 2225.0, 2227.0, 2231.0, 2230.0, 2224.0, 2231.0, 2227.0, 2225.0, 2225.0, 2225.0, 2221.0, 2226.0, 2227.0, 2223.0, 2223.0, 2226.0, 2226.0, 2227.0, 2232.0, 2227.0]
    },
    "slices": {}
  }
}