{
  "AcquisitionMatrixPE": 188,
  "AcquisitionNumber": 1,
  "AcquisitionTime": "15:43:40.197500",
  "BandwidthPerPixelPhaseEncode": 19.46,
  "BaseResolution": 188,
  "ConversionSoftware": "dcm2niix",
  "ConversionSoftwareVersion": "v1.0.20180606 GCC4.8.5",
  "DelayTime": 1.2,
  "DerivedVendorReportedEchoSpacing": 0.000820013,
  "DeviceSerialNumber": "18930",
  "DwellTime": 1.9e-06,
  "EchoTime": 0.02,
  "EffectiveEchoSpacing": 0.000273338,
  "FlipAngle": 80,
  "ImageComments": "Unaliased_MB2_PE2",
  "ImageOrientationPatientDICOM": [0.997146, 0.0655968, -0.0373852, -0.0554599, 0.300366, -0.95221],
  "ImageType": [
    "ORIGINAL",
    "PRIMARY",
    "M",
    "MB",
    "ND",
    "MOSAIC"
],
  "InPlanePhaseEncodingDirectionDICOM": "COL",
  "InstitutionAddress": "Oxfordlaan_55_Maastricht_Limburg_NL_6229_EV",
  "InstitutionName": "Scannexus",
  "InstitutionalDepartmentName": "MRI_7T",
  "MRAcquisitionType": "2D",
  "MagneticFieldStrength": 6.98,
  "Manufacturer": "Siemens",
  "ManufacturersModelName": "Investigational_Device_7T",
  "Modality": "MR",
  "MultibandAccelerationFactor": 2,
  "ParallelReductionFactorInPlane": 3,
  "PartialFourier": 0.75,
  "PatientPosition": "HFS",
  "PercentPhaseFOV": 100,
  "PhaseEncodingDirection": "j",
  "PhaseEncodingSteps": 141,
  "PhaseResolution": 1,
  "PixelBandwidth": 1400,
  "ProcedureStepDescription": "FeDem_Faruk",
  "ProtocolName": "cmrr_mbep2d_bold_AP_run6",
  "PulseSequenceDetails": "%CustomerSeq%_cmrr_mbep2d_bold",
  "ReceiveCoilName": "32Ch_Head_7T",
  "ReconMatrixPE": 188,
  "RepetitionTime": 2.6,
  "SAR": 0.0634139,
  "ScanOptions": "PFP_FS",
  "ScanningSequence": "EP",
  "SequenceName": "epfid2d1_188",
  "SequenceVariant": "SK_SS",
  "SeriesDescription": "cmrr_mbep2d_bold_AP_run6",
  "SeriesNumber": 15,
  "ShimSetting": [70, -194, 546, 562, -84, -161, 15, 129],
  "SliceThickness": 1.1,
  "SliceTiming": [0, 0.7325, 0.0625, 0.795, 0.1225, 0.855, 0.185, 0.9175, 0.245, 0.9775, 0.305, 1.04, 0.3675, 1.1, 0.4275, 1.1625, 0.49, 1.2225, 0.55, 1.2825, 0.6125, 1.345, 0.6725, 0, 0.7325, 0.0625, 0.795, 0.1225, 0.855, 0.185, 0.9175, 0.245, 0.9775, 0.305, 1.04, 0.3675, 1.1, 0.4275, 1.1625, 0.49, 1.2225, 0.55, 1.2825, 0.6125, 1.345, 0.6725],
  "SoftwareVersions": "syngo_MR_B17",
  "SpacingBetweenSlices": 1.1,
  "StationName": "MRC18930",
  "TaskName": "auditory",
  "TotalReadoutTime": 0.0511141,
  "TxRefAmp": 250,
  "dcmmeta_affine": [
    [-1.0926170349121094, -0.06076992675662041, 0.05635593459010124, 105.78306579589844],
    [-0.07187733054161072, 0.3291241228580475, -1.0467216968536377, 13.95902156829834],
    [-0.04096466675400734, 1.043379545211792, 0.3334607481956482, -109.1678466796875],
    [0.0, 0.0, 0.0, 1.0]
],
  "dcmmeta_reorient_transform": [
    [0.0, -1.0, 0.0, 187.0],
    [1.0, 0.0, 0.0, 0.0],
    [0.0, 0.0, 1.0, 0.0],
    [0.0, 0.0, 0.0, 1.0]
],
  "dcmmeta_shape": [188, 188, 46, 220],
  "dcmmeta_slice_dim": 2,
  "dcmmeta_version": 0.6,
  "global": {
    "const": {
      "AcquisitionMatrix": [188, 0, 0, 188],
      "AngioFlag": "N",
      "BitsAllocated": 16,
      "BitsStored": 12,
      "Columns": 1316,
      "EchoNumbers": 1,
      "EchoTime": 20.0,
      "EchoTrainLength": 1,
      "FlipAngle": 80.0,
      "HighBit": 11,
      "ImageOrientationPatient": [0.99714562963932, 0.06559678296431, -0.0373852291144, -0.0554599301747, 0.30036568996081, -0.9522104013501],
      "ImagePositionPatient": [-676.38087808259, -301.67005077497, 697.51424994947],
      "ImageType": [
        "ORIGINAL",
        "PRIMARY",
        "M",
        "MB",
        "ND",
        "MOSAIC"
],
      "ImagedNucleus": "1H",
      "ImagingFrequency": 297.205433,
      "InPlanePhaseEncodingDirection": "COL",
      "LargestImagePixelValue": 4095,
      "MRAcquisitionType": "2D",
      "MagneticFieldStrength": 6.98,
      "Manufacturer": "SIEMENS",
      "ManufacturerModelName": "Investigational_Device_7T",
      "Modality": "MR",
      "NumberOfAverages": 1.0,
      "NumberOfPhaseEncodingSteps": 141,
      "PercentPhaseFieldOfView": 100.0,
      "PercentSampling": 100.0,
      "PerformedProcedureStepStartTime": "141500.968000",
      "PhotometricInterpretation": "MONOCHROME2",
      "PixelBandwidth": 1400.0,
      "PixelRepresentation": 0,
      "PixelSpacing": [1.0957447290421, 1.0957447290421],
      "ProtocolName": "cmrr_mbep2d_bold_AP_run6",
      "RepetitionTime": 2600.0,
      "Rows": 1316,
      "SAR": 0.06341386474881,
      "SamplesPerPixel": 1,
      "ScanOptions": [
        "PFP",
        "FS"
],
      "ScanningSequence": "EP",
      "SequenceName": "epfid2d1_188",
      "SequenceVariant": [
        "SK",
        "SS"
],
      "SeriesDescription": "cmrr_mbep2d_bold_AP_run6",
      "SeriesNumber": 15,
      "SeriesTime": "154434.703000",
      "SliceLocation": -40.957208464512,
      "SliceThickness": 1.1000000238419,
      "SmallestImagePixelValue": 0,
      "SoftwareVersions": "syngo MR B17",
      "SpacingBetweenSlices": 1.0999993098325,
      "SpecificCharacterSet": "ISO_IR 100",
      "StudyID": "1",
      "StudyTime": "141500.890000",
      "TransmitCoilName": "32Ch_Head_7T",
      "VariableFlipAngleFlag": "N",
      "WindowCenterWidthExplanation": "Algo1",
      "dBdt": 0.0},
    "slices": {}
  },
  "time": {
    "samples": {
      "AcquisitionNumber": [1, 2, 3, 4, 5, 6, 7, 8, 9, 10, 11, 12, 13, 14, 15, 16, 17, 18, 19, 20, 21, 22, 23, 24, 25, 26, 27, 28, 29, 30, 31, 32, 33, 34, 35, 36, 37, 38, 39, 40, 41, 42, 43, 44, 45, 46, 47, 48, 49, 50, 51, 52, 53, 54, 55, 56, 57, 58, 59, 60, 61, 62, 63, 64, 65, 66, 67, 68, 69, 70, 71, 72, 73, 74, 75, 76, 77, 78, 79, 80, 81, 82, 83, 84, 85, 86, 87, 88, 89, 90, 91, 92, 93, 94, 95, 96, 97, 98, 99, 100, 101, 102, 103, 104, 105, 106, 107, 108, 109, 110, 111, 112, 113, 114, 115, 116, 117, 118, 119, 120, 121, 122, 123, 124, 125, 126, 127, 128, 129, 130, 131, 132, 133, 134, 135, 136, 137, 138, 139, 140, 141, 142, 143, 144, 145, 146, 147, 148, 149, 150, 151, 152, 153, 154, 155, 156, 157, 158, 159, 160, 161, 162, 163, 164, 165, 166, 167, 168, 169, 170, 171, 172, 173, 174, 175, 176, 177, 178, 179, 180, 181, 182, 183, 184, 185, 186, 187, 188, 189, 190, 191, 192, 193, 194, 195, 196, 197, 198, 199, 200, 201, 202, 203, 204, 205, 206, 207, 208, 209, 210, 211, 212, 213, 214, 215, 216, 217, 218, 219, 220],
      "AcquisitionTime": ["154340.197500", "154342.807500", "154345.420000", "154348.030000", "154350.640000", "154353.250000", "154355.860000", "154358.470000", "154401.082500", "154403.692500", "154406.302500", "154408.912500", "154411.522500", "154414.132500", "154416.745000", "154419.355000", "154421.965000", "154424.575000", "154427.185000", "154429.797500", "154432.407500", "154435.017500", "154437.627500", "154440.237500", "154442.847500", "154445.460000", "154448.070000", "154450.680000", "154453.290000", "154455.900000", "154458.510000", "154501.122500", "154503.732500", "154506.342500", "154508.952500", "154511.562500", "154514.175000", "154516.785000", "154519.395000", "154522.005000", "154524.615000", "154527.225000", "154529.837500", "154532.447500", "154535.057500", "154537.667500", "154540.277500", "154542.887500", "154545.500000", "154548.110000", "154550.720000", "154553.330000", "154555.940000", "154558.552500", "154601.162500", "154603.772500", "154606.382500", "154608.992500", "154611.602500", "154614.215000", "154616.825000", "154619.435000", "154622.045000", "154624.655000", "154627.265000", "154629.877500", "154632.487500", "154635.097500", "154637.707500", "154640.317500", "154642.930000", "154645.540000", "154648.150000", "154650.760000", "154653.370000", "154655.980000", "154658.592500", "154701.202500", "154703.812500", "154706.422500", "154709.032500", "154711.645000", "154714.255000", "154716.865000", "154719.475000", "154722.085000", "154724.695000", "154727.307500", "154729.917500", "154732.527500", "154735.137500", "154737.747500", "154740.357500", "154742.970000", "154745.580000", "154748.190000", "154750.800000", "154753.410000", "154756.022500", "154758.632500", "154801.242500", "154803.852500", "154806.462500", "154809.072500", "154811.685000", "154814.295000", "154816.905000", "154819.515000", "154822.125000", "154824.735000", "154827.347500", "154829.957500", "154832.567500", "154835.177500", "154837.787500", "154840.400000", "154843.010000", "154845.620000", "154848.230000", "154850.840000", "154853.450000", "154856.062500", "154858.672500", "154901.282500", "154903.892500", "154906.502500", "154909.112500", "154911.725000", "154914.335000", "154916.945000", "154919.555000", "154922.165000", "154924.777500", "154927.387500", "154929.997500", "154932.607500", "154935.217500", "154937.827500", "154940.440000", "154943.050000", "154945.660000", "154948.270000", "154950.880000", "154953.490000", "154956.102500", "154958.712500", "155001.322500", "155003.932500", "155006.542500", "155009.155000", "155011.765000", "155014.375000", "155016.985000", "155019.595000", "155022.205000", "155024.817500", "155027.427500", "155030.037500", "155032.647500", "155035.257500", "155037.867500", "155040.480000", "155043.090000", "155045.700000", "155048.310000", "155050.920000", "155053.532500", "155056.142500", "155058.752500", "155101.362500", "155103.972500", "155106.582500", "155109.195000", "155111.805000", "155114.415000", "155117.025000", "155119.635000", "155122.245000", "155124.857500", "155127.467500", "155130.077500", "155132.687500", "155135.297500", "155137.910000", "155140.520000", "155143.130000", "155145.740000", "155148.350000", "155150.960000", "155153.572500", "155156.182500", "155158.792500", "155201.402500", "155204.012500", "155206.622500", "155209.235000", "155211.845000", "155214.455000", "155217.065000", "155219.675000", "155222.287500", "155224.897500", "155227.507500", "155230.117500", "155232.727500", "155235.337500", "155237.950000", "155240.560000", "155243.170000", "155245.780000", "155248.390000", "155251.000000", "155253.612500", "155256.222500", "155258.832500", "155301.442500", "155304.052500", "155306.665000", "155309.275000", "155311.885000"],
      "ContentTime": ["154434.703000", "154434.703000", "154434.703000", "154434.703000", "154434.718000", "154434.718000", "154434.718000", "154434.718000", "154434.718000", "154434.718000", "154434.718000", "154434.734000", "154434.734000", "154434.734000", "154434.750000", "154434.750000", "154434.750000", "154434.750000", "154434.750000", "154434.750000", "154534.703000", "154534.703000", "154534.703000", "154534.703000", "154534.703000", "154534.703000", "154534.703000", "154534.703000", "154534.718000", "154534.718000", "154534.718000", "154534.718000", "154534.734000", "154534.734000", "154534.734000", "154534.734000", "154534.734000", "154534.750000", "154534.750000", "154534.750000", "154534.750000", "154534.750000", "154534.750000", "154614.703000", "154614.703000", "154614.703000", "154614.703000", "154614.703000", "154614.703000", "154614.718000", "154614.718000", "154614.718000", "154614.718000", "154614.718000", "154614.718000", "154614.718000", "154614.734000", "154614.734000", "154714.703000", "154714.703000", "154714.703000", "154714.703000", "154714.703000", "154714.703000", "154714.703000", "154714.703000", "154714.718000", "154714.718000", "154714.718000", "154714.718000", "154714.718000", "154714.718000", "154714.718000", "154714.718000", "154714.734000", "154714.734000", "154714.734000", "154714.734000", "154714.734000", "154714.750000", "154714.750000", "154814.703000", "154814.703000", "154814.703000", "154814.703000", "154814.703000", "154814.703000", "154814.703000", "154814.703000", "154814.718000", "154814.718000", "154814.718000", "154814.718000", "154814.718000", "154814.718000", "154814.718000", "154814.718000", "154814.734000", "154814.734000", "154814.734000", "154814.734000", "154814.734000", "154814.734000", "154814.734000", "154914.703000", "154914.703000", "154914.703000", "154914.703000", "154914.703000", "154914.703000", "154914.703000", "154914.703000", "154914.718000", "154914.718000", "154914.718000", "154914.718000", "154914.718000", "154914.718000", "154914.718000", "154914.734000", "154914.734000", "154914.734000", "154914.734000", "154914.734000", "154914.734000", "154914.734000", "154914.750000", "154914.750000", "155014.703000", "155014.703000", "155014.703000", "155014.703000", "155014.718000", "155014.718000", "155014.718000", "155014.718000", "155014.718000", "155014.718000", "155014.734000", "155014.734000", "155014.734000", "155014.734000", "155014.734000", "155014.734000", "155014.734000", "155014.750000", "155014.750000", "155014.750000", "155014.750000", "155014.750000", "155014.750000", "155114.703000", "155114.703000", "155114.703000", "155114.703000", "155114.703000", "155114.718000", "155114.718000", "155114.718000", "155114.718000", "155114.718000", "155114.718000", "155114.734000", "155114.734000", "155114.734000", "155114.734000", "155114.734000", "155114.734000", "155114.734000", "155114.750000", "155114.750000", "155114.750000", "155114.750000", "155114.750000", "155214.687000", "155214.703000", "155214.703000", "155214.703000", "155214.703000", "155214.703000", "155214.703000", "155214.703000", "155214.718000", "155214.718000", "155214.718000", "155214.718000", "155214.718000", "155214.718000", "155214.734000", "155214.734000", "155214.734000", "155214.734000", "155214.750000", "155214.750000", "155214.750000", "155214.750000", "155214.750000", "155314.703000", "155314.703000", "155314.703000", "155314.703000", "155314.703000", "155314.703000", "155314.703000", "155314.703000", "155314.718000", "155314.718000", "155314.718000", "155314.718000", "155314.718000", "155314.718000", "155314.718000", "155314.718000", "155314.734000", "155314.734000", "155314.734000", "155314.734000", "155314.734000", "155314.734000", "155318.781000"],
      "InstanceCreationTime": ["154434.703000", "154434.703000", "154434.703000", "154434.703000", "154434.718000", "154434.718000", "154434.718000", "154434.718000", "154434.718000", "154434.718000", "154434.718000", "154434.734000", "154434.734000", "154434.734000", "154434.750000", "154434.750000", "154434.750000", "154434.750000", "154434.750000", "154434.750000", "154534.703000", "154534.703000", "154534.703000", "154534.703000", "154534.703000", "154534.703000", "154534.703000", "154534.703000", "154534.718000", "154534.718000", "154534.718000", "154534.718000", "154534.734000", "154534.734000", "154534.734000", "154534.734000", "154534.734000", "154534.750000", "154534.750000", "154534.750000", "154534.750000", "154534.750000", "154534.750000", "154614.703000", "154614.703000", "154614.703000", "154614.703000", "154614.703000", "154614.703000", "154614.718000", "154614.718000", "154614.718000", "154614.718000", "154614.718000", "154614.718000", "154614.718000", "154614.734000", "154614.734000", "154714.703000", "154714.703000", "154714.703000", "154714.703000", "154714.703000", "154714.703000", "154714.703000", "154714.703000", "154714.718000", "154714.718000", "154714.718000", "154714.718000", "154714.718000", "154714.718000", "154714.718000", "154714.718000", "154714.734000", "154714.734000", "154714.734000", "154714.734000", "154714.734000", "154714.750000", "154714.750000", "154814.703000", "154814.703000", "154814.703000", "154814.703000", "154814.703000", "154814.703000", "154814.703000", "154814.703000", "154814.718000", "154814.718000", "154814.718000", "154814.718000", "154814.718000", "154814.718000", "154814.718000", "154814.718000", "154814.734000", "154814.734000", "154814.734000", "154814.734000", "154814.734000", "154814.734000", "154814.734000", "154914.703000", "154914.703000", "154914.703000", "154914.703000", "154914.703000", "154914.703000", "154914.703000", "154914.703000", "154914.718000", "154914.718000", "154914.718000", "154914.718000", "154914.718000", "154914.718000", "154914.718000", "154914.734000", "154914.734000", "154914.734000", "154914.734000", "154914.734000", "154914.734000", "154914.734000", "154914.750000", "154914.750000", "155014.703000", "155014.703000", "155014.703000", "155014.703000", "155014.718000", "155014.718000", "155014.718000", "155014.718000", "155014.718000", "155014.718000", "155014.734000", "155014.734000", "155014.734000", "155014.734000", "155014.734000", "155014.734000", "155014.734000", "155014.750000", "155014.750000", "155014.750000", "155014.750000", "155014.750000", "155014.750000", "155114.703000", "155114.703000", "155114.703000", "155114.703000", "155114.703000", "155114.718000", "155114.718000", "155114.718000", "155114.718000", "155114.718000", "155114.718000", "155114.734000", "155114.734000", "155114.734000", "155114.734000", "155114.734000", "155114.734000", "155114.734000", "155114.750000", "155114.750000", "155114.750000", "155114.750000", "155114.750000", "155214.687000", "155214.703000", "155214.703000", "155214.703000", "155214.703000", "155214.703000", "155214.703000", "155214.703000", "155214.718000", "155214.718000", "155214.718000", "155214.718000", "155214.718000", "155214.718000", "155214.734000", "155214.734000", "155214.734000", "155214.734000", "155214.750000", "155214.750000", "155214.750000", "155214.750000", "155214.750000", "155314.703000", "155314.703000", "155314.703000", "155314.703000", "155314.703000", "155314.703000", "155314.703000", "155314.703000", "155314.718000", "155314.718000", "155314.718000", "155314.718000", "155314.718000", "155314.718000", "155314.718000", "155314.718000", "155314.734000", "155314.734000", "155314.734000", "155314.734000", "155314.734000", "155314.734000", "155318.781000"],
      "InstanceNumber": [1, 2, 3, 4, 5, 6, 7, 8, 9, 10, 11, 12, 13, 14, 15, 16, 17, 18, 19, 20, 21, 22, 23, 24, 25, 26, 27, 28, 29, 30, 31, 32, 33, 34, 35, 36, 37, 38, 39, 40, 41, 42, 43, 44, 45, 46, 47, 48, 49, 50, 51, 52, 53, 54, 55, 56, 57, 58, 59, 60, 61, 62, 63, 64, 65, 66, 67, 68, 69, 70, 71, 72, 73, 74, 75, 76, 77, 78, 79, 80, 81, 82, 83, 84, 85, 86, 87, 88, 89, 90, 91, 92, 93, 94, 95, 96, 97, 98, 99, 100, 101, 102, 103, 104, 105, 106, 107, 108, 109, 110, 111, 112, 113, 114, 115, 116, 117, 118, 119, 120, 121, 122, 123, 124, 125, 126, 127, 128, 129, 130, 131, 132, 133, 134, 135, 136, 137, 138, 139, 140, 141, 142, 143, 144, 145, 146, 147, 148, 149, 150, 151, 152, 153, 154, 155, 156, 157, 158, 159, 160, 161, 162, 163, 164, 165, 166, 167, 168, 169, 170, 171, 172, 173, 174, 175, 176, 177, 178, 179, 180, 181, 182, 183, 184, 185, 186, 187, 188, 189, 190, 191, 192, 193, 194, 195, 196, 197, 198, 199, 200, 201, 202, 203, 204, 205, 206, 207, 208, 209, 210, 211, 212, 213, 214, 215, 216, 217, 218, 219, 220],
      "WindowCenter": [980.0, 979.0, 979.0, 980.0, 980.0, 979.0, 976.0, 976.0, 978.0, 979.0, 978.0, 975.0, 975.0, 975.0, 977.0, 978.0, 978.0, 976.0, 978.0, 980.0, 980.0, 977.0, 976.0, 976.0, 975.0, 976.0, 979.0, 978.0, 978.0, 982.0, 980.0, 978.0, 976.0, 976.0, 976.0, 977.0, 980.0, 979.0, 977.0, 976.0, 976.0, 975.0, 974.0, 976.0, 980.0, 980.0, 980.0, 982.0, 978.0, 980.0, 981.0, 979.0, 976.0, 975.0, 975.0, 976.0, 977.0, 979.0, 980.0, 979.0, 976.0, 976.0, 977.0, 979.0, 979.0, 978.0, 978.0, 977.0, 975.0, 976.0, 979.0, 978.0, 978.0, 978.0, 979.0, 979.0, 978.0, 977.0, 975.0, 972.0, 976.0, 977.0, 976.0, 979.0, 978.0, 977.0, 975.0, 975.0, 975.0, 977.0, 980.0, 980.0, 977.0, 977.0, 980.0, 979.0, 977.0, 977.0, 978.0, 978.0, 977.0, 978.0, 982.0, 979.0, 977.0, 976.0, 976.0, 978.0, 979.0, 977.0, 978.0, 974.0, 974.0, 976.0, 978.0, 981.0, 980.0, 978.0, 978.0, 977.0, 977.0, 978.0, 978.0, 981.0, 978.0, 974.0, 976.0, 978.0, 974.0, 972.0, 974.0, 975.0, 980.0, 978.0, 977.0, 979.0, 978.0, 977.0, 977.0, 977.0, 978.0, 978.0, 978.0, 981.0, 982.0, 980.0, 982.0, 984.0, 984.0, 981.0, 980.0, 978.0, 978.0, 979.0, 982.0, 981.0, 977.0, 975.0, 976.0, 974.0, 975.0, 979.0, 978.0, 977.0, 979.0, 975.0, 976.0, 979.0, 978.0, 977.0, 978.0, 978.0, 976.0, 977.0, 979.0, 981.0, 979.0, 974.0, 973.0, 974.0, 974.0, 974.0, 978.0, 980.0, 980.0, 980.0, 978.0, 980.0, 981.0, 979.0, 976.0, 977.0, 981.0, 978.0, 978.0, 978.0, 976.0, 977.0, 977.0, 976.0, 976.0, 977.0, 976.0, 977.0, 978.0, 978.0, 978.0, 979.0, 977.0, 980.0, 980.0, 976.0, 975.0, 976.0, 978.0, 977.0, 975.0, 978.0, 982.0, 979.0],
      "WindowWidth": [2226.0, 2224.0, 2224.0, 2228.0, 2228.0, 2222.0, 2214.0, 2217.0, 2223.0, 2225.0, 2222.0, 2213.0, 2212.0, 2215.0, 2220.0, 2224.0, 2221.0, 2219.0, 2220.0, 2229.0, 2226.0, 2218.0, 2218.0, 2215.0, 2215.0, 2217.0, 2226.0, 2224.0, 2227.0, 2236.0, 2226.0, 2222.0, 2216.0, 2219.0, 2217.0, 2219.0, 2229.0, 2227.0, 2221.0, 2220.0, 2219.0, 2215.0, 2213.0, 2220.0, 2229.0, 2230.0, 2229.0, 2235.0, 2222.0, 2229.0, 2233.0, 2225.0, 2215.0, 2214.0, 2215.0, 2218.0, 2222.0, 2226.0, 2228.0, 2225.0, 2219.0, 2218.0, 2220.0, 2227.0, 2227.0, 2225.0, 2223.0, 2220.0, 2215.0, 2218.0, 2226.0, 2225.0, 2224.0, 2224.0, 2226.0, 2228.0, 2223.0, 2221.0, 2213.0, 2207.0, 2218.0, 2220.0, 2219.0, 2227.0, 2224.0, 2220.0, 2216.0, 2215.0, 2215.0, 2221.0, 2230.0, 2229.0, 2220.0, 2221.0, 2230.0, 2226.0, 2219.0, 2223.0, 2225.0, 2224.0, 2222.0, 2223.0, 2234.0, 2227.0, 2219.0, 2217.0, 2218.0, 2225.0, 2228.0, 2220.0, 2222.0, 2211.0, 2212.0, 2219.0, 2225.0, 2233.0, 2227.0, 2223.0, 2223.0, 2221.0, 2221.0, 2223.0, 2225.0, 2233.0, 2222.0, 2212.0, 2219.0, 2222.0, 2209.0, 2207.0, 2212.0, 2216.0, 2231.0, 2222.0, 2219.0, 2225.0, 2223.0, 2220.0, 2221.0, 2220.0, 2222.0, 2221.0, 2225.0, 2232.0, 2234.0, 2228.0, 2233.0, 2241.0, 2239.0, 2229.0, 2230.0, 2222.0, 2224.0, 2226.0, 2235.0, 2232.0, 2216.0, 2213.0, 2217.0, 2212.0, 2216.0, 2225.0, 2222.0, 2221.0, 2226.0, 2215.0, 2218.0, 2228.0, 2224.0, 2220.0, 2224.0, 2224.0, 2218.0, 2223.0, 2228.0, 2232.0, 2224.0, 2210.0, 2211.0, 2214.0, 2212.0, 2213.0, 2225.0, 2229.0, 2228.0, 2227.0, 2223.0, 2229.0, 2234.0, 2226.0, 2217.0, 2220.0, 2234.0, 2221.0, 2224.0, 2221.0, 2217.0, 2222.0, 2220.0, 2216.0, 2218.0, 2223.0, 2217.0, 2222.0, 2224.0, 2224.0, 2223.0, 2225.0, 2219.0, 2232.0, 2228.0, 2217.0, 2217.0, 2219.0, 2226.0, 2220.0, 2215.0, 2224.0, 2235.0, 2225.0]
    },
    "slices": {}
  }
}