{
  "AcquisitionMatrixPE": 188,
  "AcquisitionNumber": 1,
  "AcquisitionTime": "15:11:15.152500",
  "BandwidthPerPixelPhaseEncode": 19.46,
  "BaseResolution": 188,
  "ConversionSoftware": "dcm2niix",
  "ConversionSoftwareVersion": "v1.0.20180606 GCC4.8.5",
  "DelayTime": 1.2,
  "DerivedVendorReportedEchoSpacing": 0.000820013,
  "DeviceSerialNumber": "18930",
  "DwellTime": 1.9e-06,
  "EchoTime": 0.02,
  "EffectiveEchoSpacing": 0.000273338,
  "FlipAngle": 80,
  "ImageComments": "Unaliased_MB2_PE2",
  "ImageOrientationPatientDICOM": [0.997146, 0.0655968, -0.0373852, -0.0554599, 0.300366, -0.95221],
  "ImageType": [
    "ORIGINAL",
    "PRIMARY",
    "M",
    "MB",
    "ND",
    "MOSAIC"
],
  "InPlanePhaseEncodingDirectionDICOM": "COL",
  "InstitutionAddress": "Oxfordlaan_55_Maastricht_Limburg_NL_6229_EV",
  "InstitutionName": "Scannexus",
  "InstitutionalDepartmentName": "MRI_7T",
  "MRAcquisitionType": "2D",
  "MagneticFieldStrength": 6.98,
  "Manufacturer": "Siemens",
  "ManufacturersModelName": "Investigational_Device_7T",
  "Modality": "MR",
  "MultibandAccelerationFactor": 2,
  "ParallelReductionFactorInPlane": 3,
  "PartialFourier": 0.75,
  "PatientPosition": "HFS",
  "PercentPhaseFOV": 100,
  "PhaseEncodingDirection": "j",
  "PhaseEncodingSteps": 141,
  "PhaseResolution": 1,
  "PixelBandwidth": 1400,
  "ProcedureStepDescription": "FeDem_Faruk",
  "ProtocolName": "cmrr_mbep2d_bold_AP_run3",
  "PulseSequenceDetails": "%CustomerSeq%_cmrr_mbep2d_bold",
  "ReceiveCoilName": "32Ch_Head_7T",
  "ReconMatrixPE": 188,
  "RepetitionTime": 2.6,
  "SAR": 0.06357,
  "ScanOptions": "PFP_FS",
  "ScanningSequence": "EP",
  "SequenceName": "epfid2d1_188",
  "SequenceVariant": "SK_SS",
  "SeriesDescription": "cmrr_mbep2d_bold_AP_run3",
  "SeriesNumber": 12,
  "ShimSetting": [70, -194, 546, 562, -84, -161, 15, 129],
  "SliceThickness": 1.1,
  "SliceTiming": [0, 0.7325, 0.06, 0.795, 0.1225, 0.855, 0.1825, 0.9175, 0.245, 0.9775, 0.305, 1.0375, 0.3675, 1.1, 0.4275, 1.16, 0.4875, 1.2225, 0.55, 1.2825, 0.61, 1.345, 0.6725, 0, 0.7325, 0.06, 0.795, 0.1225, 0.855, 0.1825, 0.9175, 0.245, 0.9775, 0.305, 1.0375, 0.3675, 1.1, 0.4275, 1.16, 0.4875, 1.2225, 0.55, 1.2825, 0.61, 1.345, 0.6725],
  "SoftwareVersions": "syngo_MR_B17",
  "SpacingBetweenSlices": 1.1,
  "StationName": "MRC18930",
  "TaskName": "auditory",
  "TotalReadoutTime": 0.0511141,
  "TxRefAmp": 250,
  "dcmmeta_affine": [
    [-1.0926170349121094, -0.06076992675662041, 0.05635593459010124, 105.78306579589844],
    [-0.07187733054161072, 0.3291241228580475, -1.0467216968536377, 13.95902156829834],
    [-0.04096466675400734, 1.043379545211792, 0.3334607481956482, -109.1678466796875],
    [0.0, 0.0, 0.0, 1.0]
],
  "dcmmeta_reorient_transform": [
    [0.0, -1.0, 0.0, 187.0],
    [1.0, 0.0, 0.0, 0.0],
    [0.0, 0.0, 1.0, 0.0],
    [0.0, 0.0, 0.0, 1.0]
],
  "dcmmeta_shape": [188, 188, 46, 220],
  "dcmmeta_slice_dim": 2,
  "dcmmeta_version": 0.6,
  "global": {
    "const": {
      "AcquisitionMatrix": [188, 0, 0, 188],
      "AngioFlag": "N",
      "BitsAllocated": 16,
      "BitsStored": 12,
      "Columns": 1316,
      "EchoNumbers": 1,
      "EchoTime": 20.0,
      "EchoTrainLength": 1,
      "FlipAngle": 80.0,
      "HighBit": 11,
      "ImageOrientationPatient": [0.99714562963932, 0.06559678296431, -0.0373852291144, -0.0554599301747, 0.30036568996081, -0.9522104013501],
      "ImagePositionPatient": [-676.38087808259, -301.67005077497, 697.51424994947],
      "ImageType": [
        "ORIGINAL",
        "PRIMARY",
        "M",
        "MB",
        "ND",
        "MOSAIC"
],
      "ImagedNucleus": "1H",
      "ImagingFrequency": 297.205416,
      "InPlanePhaseEncodingDirection": "COL",
      "LargestImagePixelValue": 4095,
      "MRAcquisitionType": "2D",
      "MagneticFieldStrength": 6.98,
      "Manufacturer": "SIEMENS",
      "ManufacturerModelName": "Investigational_Device_7T",
      "Modality": "MR",
      "NumberOfAverages": 1.0,
      "NumberOfPhaseEncodingSteps": 141,
      "PercentPhaseFieldOfView": 100.0,
      "PercentSampling": 100.0,
      "PerformedProcedureStepStartTime": "141500.968000",
      "PhotometricInterpretation": "MONOCHROME2",
      "PixelBandwidth": 1400.0,
      "PixelRepresentation": 0,
      "PixelSpacing": [1.0957447290421, 1.0957447290421],
      "ProtocolName": "cmrr_mbep2d_bold_AP_run3",
      "RepetitionTime": 2600.0,
      "Rows": 1316,
      "SAR": 0.06357004113905,
      "SamplesPerPixel": 1,
      "ScanOptions": [
        "PFP",
        "FS"
],
      "ScanningSequence": "EP",
      "SequenceName": "epfid2d1_188",
      "SequenceVariant": [
        "SK",
        "SS"
],
      "SeriesDescription": "cmrr_mbep2d_bold_AP_run3",
      "SeriesNumber": 12,
      "SeriesTime": "151214.703000",
      "SliceLocation": -40.957208464512,
      "SliceThickness": 1.1000000238419,
      "SmallestImagePixelValue": 0,
      "SoftwareVersions": "syngo MR B17",
      "SpacingBetweenSlices": 1.0999993098325,
      "SpecificCharacterSet": "ISO_IR 100",
      "StudyID": "1",
      "StudyTime": "141500.890000",
      "TransmitCoilName": "32Ch_Head_7T",
      "VariableFlipAngleFlag": "N",
      "WindowCenterWidthExplanation": "Algo1",
      "dBdt": 0.0},
    "slices": {}
  },
  "time": {
    "samples": {
      "AcquisitionNumber": [1, 2, 3, 4, 5, 6, 7, 8, 9, 10, 11, 12, 13, 14, 15, 16, 17, 18, 19, 20, 21, 22, 23, 24, 25, 26, 27, 28, 29, 30, 31, 32, 33, 34, 35, 36, 37, 38, 39, 40, 41, 42, 43, 44, 45, 46, 47, 48, 49, 50, 51, 52, 53, 54, 55, 56, 57, 58, 59, 60, 61, 62, 63, 64, 65, 66, 67, 68, 69, 70, 71, 72, 73, 74, 75, 76, 77, 78, 79, 80, 81, 82, 83, 84, 85, 86, 87, 88, 89, 90, 91, 92, 93, 94, 95, 96, 97, 98, 99, 100, 101, 102, 103, 104, 105, 106, 107, 108, 109, 110, 111, 112, 113, 114, 115, 116, 117, 118, 119, 120, 121, 122, 123, 124, 125, 126, 127, 128, 129, 130, 131, 132, 133, 134, 135, 136, 137, 138, 139, 140, 141, 142, 143, 144, 145, 146, 147, 148, 149, 150, 151, 152, 153, 154, 155, 156, 157, 158, 159, 160, 161, 162, 163, 164, 165, 166, 167, 168, 169, 170, 171, 172, 173, 174, 175, 176, 177, 178, 179, 180, 181, 182, 183, 184, 185, 186, 187, 188, 189, 190, 191, 192, 193, 194, 195, 196, 197, 198, 199, 200, 201, 202, 203, 204, 205, 206, 207, 208, 209, 210, 211, 212, 213, 214, 215, 216, 217, 218, 219, 220],
      "AcquisitionTime": ["151115.152500", "151117.762500", "151120.372500", "151122.982500", "151125.595000", "151128.205000", "151130.815000", "151133.425000", "151136.035000", "151138.645000", "151141.257500", "151143.867500", "151146.477500", "151149.087500", "151151.697500", "151154.310000", "151156.920000", "151159.530000", "151202.140000", "151204.750000", "151207.360000", "151209.972500", "151212.582500", "151215.192500", "151217.802500", "151220.412500", "151223.022500", "151225.635000", "151228.245000", "151230.855000", "151233.465000", "151236.075000", "151238.687500", "151241.297500", "151243.907500", "151246.517500", "151249.127500", "151251.737500", "151254.350000", "151256.960000", "151259.570000", "151302.180000", "151304.790000", "151307.400000", "151310.012500", "151312.622500", "151315.232500", "151317.842500", "151320.452500", "151323.065000", "151325.675000", "151328.285000", "151330.895000", "151333.505000", "151336.115000", "151338.727500", "151341.337500", "151343.947500", "151346.557500", "151349.167500", "151351.777500", "151354.390000", "151357.000000", "151359.610000", "151402.220000", "151404.830000", "151407.442500", "151410.052500", "151412.662500", "151415.272500", "151417.882500", "151420.492500", "151423.105000", "151425.715000", "151428.325000", "151430.935000", "151433.545000", "151436.157500", "151438.767500", "151441.377500", "151443.987500", "151446.597500", "151449.207500", "151451.820000", "151454.430000", "151457.040000", "151459.650000", "151502.260000", "151504.870000", "151507.482500", "151510.092500", "151512.702500", "151515.312500", "151517.922500", "151520.535000", "151523.145000", "151525.755000", "151528.365000", "151530.975000", "151533.585000", "151536.197500", "151538.807500", "151541.417500", "151544.027500", "151546.637500", "151549.247500", "151551.860000", "151554.470000", "151557.080000", "151559.690000", "151602.300000", "151604.912500", "151607.522500", "151610.132500", "151612.742500", "151615.352500", "151617.962500", "151620.575000", "151623.185000", "151625.795000", "151628.405000", "151631.015000", "151633.625000", "151636.237500", "151638.847500", "151641.457500", "151644.067500", "151646.677500", "151649.290000", "151651.900000", "151654.510000", "151657.120000", "151659.730000", "151702.340000", "151704.952500", "151707.562500", "151710.172500", "151712.782500", "151715.392500", "151718.002500", "151720.615000", "151723.225000", "151725.835000", "151728.445000", "151731.055000", "151733.667500", "151736.277500", "151738.887500", "151741.497500", "151744.107500", "151746.717500", "151749.330000", "151751.940000", "151754.550000", "151757.160000", "151759.770000", "151802.380000", "151804.992500", "151807.602500", "151810.212500", "151812.822500", "151815.432500", "151818.045000", "151820.655000", "151823.265000", "151825.875000", "151828.485000", "151831.095000", "151833.707500", "151836.317500", "151838.927500", "151841.537500", "151844.147500", "151846.757500", "151849.370000", "151851.980000", "151854.590000", "151857.200000", "151859.810000", "151902.422500", "151905.032500", "151907.642500", "151910.252500", "151912.862500", "151915.472500", "151918.085000", "151920.695000", "151923.305000", "151925.915000", "151928.525000", "151931.135000", "151933.747500", "151936.357500", "151938.967500", "151941.577500", "151944.187500", "151946.800000", "151949.410000", "151952.020000", "151954.630000", "151957.240000", "151959.850000", "152002.462500", "152005.072500", "152007.682500", "152010.292500", "152012.902500", "152015.512500", "152018.125000", "152020.735000", "152023.345000", "152025.955000", "152028.565000", "152031.177500", "152033.787500", "152036.397500", "152039.007500", "152041.617500", "152044.227500", "152046.840000"],
      "ContentTime": ["151214.703000", "151214.703000", "151214.703000", "151214.703000", "151214.718000", "151214.718000", "151214.718000", "151214.718000", "151214.718000", "151214.734000", "151214.734000", "151214.734000", "151214.734000", "151214.734000", "151214.750000", "151214.750000", "151214.750000", "151214.750000", "151214.750000", "151214.750000", "151214.765000", "151214.765000", "151314.703000", "151314.703000", "151314.703000", "151314.703000", "151314.703000", "151314.703000", "151314.703000", "151314.703000", "151314.718000", "151314.718000", "151314.718000", "151314.718000", "151314.718000", "151314.718000", "151314.718000", "151314.718000", "151314.734000", "151314.734000", "151314.734000", "151314.734000", "151314.750000", "151314.750000", "151314.750000", "151414.703000", "151414.703000", "151414.703000", "151414.703000", "151414.703000", "151414.703000", "151414.703000", "151414.703000", "151414.718000", "151414.718000", "151414.718000", "151414.718000", "151414.718000", "151414.734000", "151414.734000", "151414.734000", "151414.734000", "151414.734000", "151414.750000", "151414.750000", "151414.750000", "151414.750000", "151414.750000", "151514.687000", "151514.703000", "151514.703000", "151514.703000", "151514.703000", "151514.703000", "151514.703000", "151514.703000", "151514.718000", "151514.718000", "151514.718000", "151514.718000", "151514.718000", "151514.734000", "151514.734000", "151514.734000", "151514.734000", "151514.750000", "151514.750000", "151514.750000", "151514.750000", "151514.750000", "151514.765000", "151614.703000", "151614.703000", "151614.703000", "151614.703000", "151614.703000", "151614.703000", "151614.703000", "151614.703000", "151614.718000", "151614.718000", "151614.718000", "151614.718000", "151614.718000", "151614.718000", "151614.718000", "151614.734000", "151614.734000", "151614.734000", "151614.734000", "151614.734000", "151614.734000", "151614.734000", "151614.734000", "151714.703000", "151714.703000", "151714.703000", "151714.703000", "151714.718000", "151714.718000", "151714.718000", "151714.718000", "151714.734000", "151714.734000", "151714.734000", "151714.734000", "151714.734000", "151714.734000", "151714.750000", "151714.750000", "151714.750000", "151714.750000", "151714.750000", "151714.750000", "151714.750000", "151714.750000", "151714.765000", "151814.703000", "151814.703000", "151814.703000", "151814.703000", "151814.703000", "151814.703000", "151814.703000", "151814.703000", "151814.718000", "151814.718000", "151814.718000", "151814.718000", "151814.718000", "151814.718000", "151814.718000", "151814.718000", "151814.734000", "151814.734000", "151814.734000", "151814.734000", "151814.734000", "151814.734000", "151814.734000", "151914.703000", "151914.703000", "151914.703000", "151914.703000", "151914.703000", "151914.703000", "151914.703000", "151914.703000", "151914.718000", "151914.718000", "151914.718000", "151914.718000", "151914.718000", "151914.718000", "151914.718000", "151914.718000", "151914.734000", "151914.750000", "151914.750000", "151914.750000", "151914.750000", "151914.750000", "151914.765000", "152014.703000", "152014.703000", "152014.703000", "152014.703000", "152014.703000", "152014.703000", "152014.703000", "152014.718000", "152014.718000", "152014.718000", "152014.718000", "152014.718000", "152014.718000", "152014.718000", "152014.718000", "152014.734000", "152014.734000", "152014.734000", "152014.734000", "152014.734000", "152014.734000", "152014.734000", "152014.750000", "152053.875000", "152053.875000", "152053.875000", "152053.875000", "152053.875000", "152053.890000", "152053.890000", "152053.890000", "152053.890000", "152053.890000", "152053.890000", "152053.890000", "152053.890000", "152053.906000"],
      "InstanceCreationTime": ["151214.703000", "151214.703000", "151214.703000", "151214.703000", "151214.718000", "151214.718000", "151214.718000", "151214.718000", "151214.718000", "151214.734000", "151214.734000", "151214.734000", "151214.734000", "151214.734000", "151214.750000", "151214.750000", "151214.750000", "151214.750000", "151214.750000", "151214.750000", "151214.765000", "151214.765000", "151314.703000", "151314.703000", "151314.703000", "151314.703000", "151314.703000", "151314.703000", "151314.703000", "151314.703000", "151314.718000", "151314.718000", "151314.718000", "151314.718000", "151314.718000", "151314.718000", "151314.718000", "151314.718000", "151314.734000", "151314.734000", "151314.734000", "151314.734000", "151314.750000", "151314.750000", "151314.750000", "151414.703000", "151414.703000", "151414.703000", "151414.703000", "151414.703000", "151414.703000", "151414.703000", "151414.703000", "151414.718000", "151414.718000", "151414.718000", "151414.718000", "151414.718000", "151414.734000", "151414.734000", "151414.734000", "151414.734000", "151414.734000", "151414.750000", "151414.750000", "151414.750000", "151414.750000", "151414.750000", "151514.687000", "151514.703000", "151514.703000", "151514.703000", "151514.703000", "151514.703000", "151514.703000", "151514.703000", "151514.718000", "151514.718000", "151514.718000", "151514.718000", "151514.718000", "151514.734000", "151514.734000", "151514.734000", "151514.734000", "151514.750000", "151514.750000", "151514.750000", "151514.750000", "151514.750000", "151514.765000", "151614.703000", "151614.703000", "151614.703000", "151614.703000", "151614.703000", "151614.703000", "151614.703000", "151614.703000", "151614.718000", "151614.718000", "151614.718000", "151614.718000", "151614.718000", "151614.718000", "151614.718000", "151614.734000", "151614.734000", "151614.734000", "151614.734000", "151614.734000", "151614.734000", "151614.734000", "151614.734000", "151714.703000", "151714.703000", "151714.703000", "151714.703000", "151714.718000", "151714.718000", "151714.718000", "151714.718000", "151714.734000", "151714.734000", "151714.734000", "151714.734000", "151714.734000", "151714.734000", "151714.750000", "151714.750000", "151714.750000", "151714.750000", "151714.750000", "151714.750000", "151714.750000", "151714.750000", "151714.765000", "151814.703000", "151814.703000", "151814.703000", "151814.703000", "151814.703000", "151814.703000", "151814.703000", "151814.703000", "151814.718000", "151814.718000", "151814.718000", "151814.718000", "151814.718000", "151814.718000", "151814.718000", "151814.718000", "151814.734000", "151814.734000", "151814.734000", "151814.734000", "151814.734000", "151814.734000", "151814.734000", "151914.703000", "151914.703000", "151914.703000", "151914.703000", "151914.703000", "151914.703000", "151914.703000", "151914.703000", "151914.718000", "151914.718000", "151914.718000", "151914.718000", "151914.718000", "151914.718000", "151914.718000", "151914.718000", "151914.734000", "151914.750000", "151914.750000", "151914.750000", "151914.750000", "151914.750000", "151914.765000", "152014.703000", "152014.703000", "152014.703000", "152014.703000", "152014.703000", "152014.703000", "152014.703000", "152014.718000", "152014.718000", "152014.718000", "152014.718000", "152014.718000", "152014.718000", "152014.718000", "152014.718000", "152014.734000", "152014.734000", "152014.734000", "152014.734000", "152014.734000", "152014.734000", "152014.734000", "152014.750000", "152053.875000", "152053.875000", "152053.875000", "152053.875000", "152053.875000", "152053.890000", "152053.890000", "152053.890000", "152053.890000", "152053.890000", "152053.890000", "152053.890000", "152053.890000", "152053.906000"],
      "InstanceNumber": [1, 2, 3, 4, 5, 6, 7, 8, 9, 10, 11, 12, 13, 14, 15, 16, 17, 18, 19, 20, 21, 22, 23, 24, 25, 26, 27, 28, 29, 30, 31, 32, 33, 34, 35, 36, 37, 38, 39, 40, 41, 42, 43, 44, 45, 46, 47, 48, 49, 50, 51, 52, 53, 54, 55, 56, 57, 58, 59, 60, 61, 62, 63, 64, 65, 66, 67, 68, 69, 70, 71, 72, 73, 74, 75, 76, 77, 78, 79, 80, 81, 82, 83, 84, 85, 86, 87, 88, 89, 90, 91, 92, 93, 94, 95, 96, 97, 98, 99, 100, 101, 102, 103, 104, 105, 106, 107, 108, 109, 110, 111, 112, 113, 114, 115, 116, 117, 118, 119, 120, 121, 122, 123, 124, 125, 126, 127, 128, 129, 130, 131, 132, 133, 134, 135, 136, 137, 138, 139, 140, 141, 142, 143, 144, 145, 146, 147, 148, 149, 150, 151, 152, 153, 154, 155, 156, 157, 158, 159, 160, 161, 162, 163, 164, 165, 166, 167, 168, 169, 170, 171, 172, 173, 174, 175, 176, 177, 178, 179, 180, 181, 182, 183, 184, 185, 186, 187, 188, 189, 190, 191, 192, 193, 194, 195, 196, 197, 198, 199, 200, 201, 202, 203, 204, 205, 206, 207, 208, 209, 210, 211, 212, 213, 214, 215, 216, 217, 218, 219, 220],
      "WindowCenter": [976.0, 974.0, 973.0, 974.0, 973.0, 973.0, 973.0, 972.0, 972.0, 976.0, 973.0, 972.0, 974.0, 973.0, 974.0, 974.0, 971.0, 973.0, 972.0, 970.0, 972.0, 972.0, 972.0, 975.0, 975.0, 975.0, 975.0, 972.0, 971.0, 971.0, 972.0, 972.0, 972.0, 971.0, 971.0, 973.0, 971.0, 972.0, 976.0, 975.0, 974.0, 977.0, 974.0, 974.0, 972.0, 970.0, 971.0, 972.0, 972.0, 976.0, 973.0, 971.0, 972.0, 973.0, 974.0, 976.0, 973.0, 974.0, 975.0, 974.0, 973.0, 972.0, 974.0, 972.0, 971.0, 975.0, 971.0, 970.0, 974.0, 975.0, 975.0, 977.0, 975.0, 971.0, 971.0, 972.0, 975.0, 972.0, 974.0, 976.0, 975.0, 976.0, 975.0, 975.0, 975.0, 975.0, 973.0, 973.0, 972.0, 976.0, 977.0, 975.0, 976.0, 976.0, 976.0, 975.0, 974.0, 976.0, 974.0, 975.0, 974.0, 974.0, 973.0, 972.0, 971.0, 973.0, 974.0, 973.0, 976.0, 974.0, 974.0, 974.0, 976.0, 977.0, 978.0, 977.0, 976.0, 978.0, 975.0, 972.0, 973.0, 975.0, 973.0, 972.0, 974.0, 973.0, 971.0, 973.0, 971.0, 971.0, 972.0, 975.0, 977.0, 976.0, 977.0, 976.0, 973.0, 973.0, 976.0, 974.0, 974.0, 975.0, 979.0, 978.0, 974.0, 975.0, 975.0, 972.0, 970.0, 973.0, 974.0, 975.0, 978.0, 976.0, 978.0, 978.0, 975.0, 977.0, 977.0, 977.0, 978.0, 978.0, 976.0, 976.0, 976.0, 975.0, 975.0, 975.0, 973.0, 975.0, 975.0, 975.0, 977.0, 976.0, 974.0, 973.0, 976.0, 976.0, 973.0, 975.0, 975.0, 975.0, 973.0, 972.0, 974.0, 976.0, 972.0, 974.0, 976.0, 974.0, 974.0, 975.0, 974.0, 976.0, 977.0, 975.0, 973.0, 973.0, 973.0, 974.0, 975.0, 976.0, 974.0, 976.0, 978.0, 976.0, 975.0, 977.0, 978.0, 977.0, 976.0, 973.0, 973.0, 975.0, 974.0, 975.0, 976.0, 978.0, 975.0, 973.0],
      "WindowWidth": [2220.0, 2214.0, 2212.0, 2215.0, 2213.0, 2212.0, 2213.0, 2209.0, 2209.0, 2220.0, 2211.0, 2210.0, 2215.0, 2213.0, 2217.0, 2213.0, 2208.0, 2214.0, 2207.0, 2204.0, 2211.0, 2211.0, 2212.0, 2220.0, 2218.0, 2218.0, 2219.0, 2208.0, 2206.0, 2207.0, 2210.0, 2211.0, 2209.0, 2208.0, 2208.0, 2214.0, 2208.0, 2210.0, 2224.0, 2218.0, 2217.0, 2225.0, 2215.0, 2215.0, 2209.0, 2205.0, 2208.0, 2209.0, 2210.0, 2221.0, 2212.0, 2206.0, 2212.0, 2213.0, 2218.0, 2222.0, 2213.0, 2215.0, 2219.0, 2216.0, 2212.0, 2210.0, 2217.0, 2208.0, 2208.0, 2219.0, 2207.0, 2206.0, 2217.0, 2220.0, 2220.0, 2225.0, 2216.0, 2207.0, 2205.0, 2210.0, 2218.0, 2209.0, 2217.0, 2221.0, 2218.0, 2223.0, 2221.0, 2218.0, 2219.0, 2217.0, 2214.0, 2213.0, 2211.0, 2222.0, 2224.0, 2219.0, 2220.0, 2221.0, 2223.0, 2218.0, 2216.0, 2222.0, 2216.0, 2218.0, 2215.0, 2216.0, 2212.0, 2210.0, 2207.0, 2213.0, 2215.0, 2211.0, 2220.0, 2217.0, 2216.0, 2217.0, 2222.0, 2224.0, 2226.0, 2225.0, 2221.0, 2228.0, 2217.0, 2209.0, 2212.0, 2221.0, 2212.0, 2210.0, 2216.0, 2213.0, 2208.0, 2215.0, 2208.0, 2205.0, 2209.0, 2220.0, 2225.0, 2222.0, 2226.0, 2222.0, 2211.0, 2213.0, 2221.0, 2215.0, 2214.0, 2221.0, 2231.0, 2226.0, 2216.0, 2219.0, 2218.0, 2208.0, 2204.0, 2213.0, 2215.0, 2218.0, 2225.0, 2221.0, 2226.0, 2224.0, 2216.0, 2221.0, 2222.0, 2223.0, 2225.0, 2225.0, 2218.0, 2219.0, 2219.0, 2216.0, 2217.0, 2216.0, 2211.0, 2218.0, 2216.0, 2219.0, 2225.0, 2219.0, 2214.0, 2213.0, 2221.0, 2220.0, 2214.0, 2218.0, 2219.0, 2217.0, 2210.0, 2208.0, 2218.0, 2219.0, 2209.0, 2217.0, 2224.0, 2214.0, 2215.0, 2220.0, 2214.0, 2221.0, 2225.0, 2218.0, 2212.0, 2213.0, 2213.0, 2215.0, 2220.0, 2221.0, 2217.0, 2222.0, 2226.0, 2221.0, 2219.0, 2225.0, 2229.0, 2225.0, 2220.0, 2213.0, 2213.0, 2219.0, 2215.0, 2219.0, 2224.0, 2228.0, 2217.0, 2212.0]
    },
    "slices": {}
  }
}