{
  "AcquisitionMatrixPE": 188,
  "AcquisitionNumber": 1,
  "AcquisitionTime": "19:35:5.660000",
  "BandwidthPerPixelPhaseEncode": 19.46,
  "BaseResolution": 188,
  "ConversionSoftware": "dcm2niix",
  "ConversionSoftwareVersion": "v1.0.20180606 GCC4.8.5",
  "DerivedVendorReportedEchoSpacing": 0.000820013,
  "DeviceSerialNumber": "18930",
  "DwellTime": 1.9e-06,
  "EchoTime": 0.02,
  "EffectiveEchoSpacing": 0.000273338,
  "FlipAngle": 75,
  "ImageComments": "Unaliased_MB2_PE2",
  "ImageOrientationPatientDICOM": [0.997889, 0.0648399, -0.00357726, -0.0232614, 0.305477, -0.951915],
  "ImageType": [
    "ORIGINAL",
    "PRIMARY",
    "M",
    "MB",
    "ND",
    "MOSAIC"
],
  "InPlanePhaseEncodingDirectionDICOM": "COL",
  "InstitutionAddress": "Oxfordlaan_55_Maastricht_753AAF_Limburg_NL_6229_EV",
  "InstitutionName": "Scannexus",
  "InstitutionalDepartmentName": "MRI_7T",
  "MRAcquisitionType": "2D",
  "MagneticFieldStrength": 6.98,
  "Manufacturer": "Siemens",
  "ManufacturersModelName": "Investigational_Device_7T",
  "Modality": "MR",
  "MultibandAccelerationFactor": 2,
  "ParallelReductionFactorInPlane": 3,
  "PartialFourier": 0.75,
  "PatientPosition": "HFS",
  "PercentPhaseFOV": 100,
  "PhaseEncodingDirection": "j",
  "PhaseEncodingSteps": 141,
  "PhaseResolution": 1,
  "PixelBandwidth": 1400,
  "ProcedureStepDescription": "FeDem_Faruk",
  "ProtocolName": "cmrr_mbep2d_bold_rest",
  "PulseSequenceDetails": "%CustomerSeq%_cmrr_mbep2d_bold",
  "ReceiveCoilName": "32Ch_Head_7T",
  "ReconMatrixPE": 188,
  "RepetitionTime": 1.5,
  "SAR": 0.0971047,
  "ScanOptions": "PFP_FS",
  "ScanningSequence": "EP",
  "SequenceName": "epfid2d1_188",
  "SequenceVariant": "SK_SS",
  "SeriesDescription": "cmrr_mbep2d_bold_rest",
  "SeriesNumber": 26,
  "ShimSetting": [85, -56, 268, 436, -198, 101, 639, 104],
  "SliceThickness": 1.1,
  "SliceTiming": [0, 0.7825, 0.06, 0.8425, 0.12, 0.9025, 0.18, 0.9625, 0.24, 1.0225, 0.3, 1.0825, 0.36, 1.1425, 0.42, 1.205, 0.48, 1.265, 0.5425, 1.325, 0.6025, 1.385, 0.6625, 1.445, 0.7225, 0, 0.7825, 0.06, 0.8425, 0.12, 0.9025, 0.18, 0.9625, 0.24, 1.0225, 0.3, 1.0825, 0.36, 1.1425, 0.42, 1.205, 0.48, 1.265, 0.5425, 1.325, 0.6025, 1.385, 0.6625, 1.445, 0.7225],
  "SoftwareVersions": "syngo_MR_B17",
  "SpacingBetweenSlices": 1.1,
  "StationName": "MRC18930",
  "TaskName": "rest",
  "TotalReadoutTime": 0.0511141,
  "TxRefAmp": 197,
  "dcmmeta_affine": [
    [-1.0934319496154785, -0.025488605722784996, 0.06669224053621292, 106.12641143798828],
    [-0.07104796916246414, 0.33472493290901184, -1.0449881553649902, 32.437007904052734],
    [-0.0039197588339447975, 1.0430561304092407, 0.3369746506214142, -114.89881896972656],
    [0.0, 0.0, 0.0, 1.0]
],
  "dcmmeta_reorient_transform": [
    [0.0, -1.0, 0.0, 187.0],
    [1.0, 0.0, 0.0, 0.0],
    [0.0, 0.0, 1.0, 0.0],
    [0.0, 0.0, 0.0, 1.0]
],
  "dcmmeta_shape": [188, 188, 50, 400],
  "dcmmeta_slice_dim": 2,
  "dcmmeta_version": 0.6,
  "global": {
    "const": {
      "AcquisitionMatrix": [188, 0, 0, 188],
      "AngioFlag": "N",
      "BitsAllocated": 16,
      "BitsStored": 12,
      "Columns": 1504,
      "EchoNumbers": 1,
      "EchoTime": 20.0,
      "EchoTrainLength": 1,
      "FlipAngle": 75.0,
      "HighBit": 11,
      "ImageOrientationPatient": [0.99788926830815, 0.06483989079298, -0.0035772555643, -0.0232614443683, 0.30547709631825, -0.9519152529668],
      "ImagePositionPatient": [-804.06673381193, -362.02912736474, 769.06280585495],
      "ImageType": [
        "ORIGINAL",
        "PRIMARY",
        "M",
        "MB",
        "ND",
        "MOSAIC"
],
      "ImagedNucleus": "1H",
      "ImagingFrequency": 297.205636,
      "InPlanePhaseEncodingDirection": "COL",
      "LargestImagePixelValue": 4095,
      "MRAcquisitionType": "2D",
      "MagneticFieldStrength": 6.98,
      "Manufacturer": "SIEMENS",
      "ManufacturerModelName": "Investigational_Device_7T",
      "Modality": "MR",
      "NumberOfAverages": 1.0,
      "NumberOfPhaseEncodingSteps": 141,
      "PercentPhaseFieldOfView": 100.0,
      "PercentSampling": 100.0,
      "PerformedProcedureStepStartTime": "171503.781000",
      "PhotometricInterpretation": "MONOCHROME2",
      "PixelBandwidth": 1400.0,
      "PixelRepresentation": 0,
      "PixelSpacing": [1.0957447290421, 1.0957447290421],
      "ProtocolName": "cmrr_mbep2d_bold_rest",
      "RepetitionTime": 1500.0,
      "Rows": 1504,
      "SAR": 0.09710472826419,
      "SamplesPerPixel": 1,
      "ScanOptions": [
        "PFP",
        "FS"
],
      "ScanningSequence": "EP",
      "SequenceName": "epfid2d1_188",
      "SequenceVariant": [
        "SK",
        "SS"
],
      "SeriesDescription": "cmrr_mbep2d_bold_rest",
      "SeriesNumber": 26,
      "SeriesTime": "193516.765000",
      "SliceLocation": -59.578608268322,
      "SliceThickness": 1.1000000238419,
      "SmallestImagePixelValue": 0,
      "SoftwareVersions": "syngo MR B17",
      "SpacingBetweenSlices": 1.0999999862568,
      "SpecificCharacterSet": "ISO_IR 100",
      "StudyID": "1",
      "StudyTime": "171503.734000",
      "TransmitCoilName": "32Ch_Head_7T",
      "VariableFlipAngleFlag": "N",
      "WindowCenterWidthExplanation": "Algo1",
      "dBdt": 0.0},
    "slices": {}
  },
  "time": {
    "samples": {
      "AcquisitionNumber": [1, 2, 3, 4, 5, 6, 7, 8, 9, 10, 11, 12, 13, 14, 15, 16, 17, 18, 19, 20, 21, 22, 23, 24, 25, 26, 27, 28, 29, 30, 31, 32, 33, 34, 35, 36, 37, 38, 39, 40, 41, 42, 43, 44, 45, 46, 47, 48, 49, 50, 51, 52, 53, 54, 55, 56, 57, 58, 59, 60, 61, 62, 63, 64, 65, 66, 67, 68, 69, 70, 71, 72, 73, 74, 75, 76, 77, 78, 79, 80, 81, 82, 83, 84, 85, 86, 87, 88, 89, 90, 91, 92, 93, 94, 95, 96, 97, 98, 99, 100, 101, 102, 103, 104, 105, 106, 107, 108, 109, 110, 111, 112, 113, 114, 115, 116, 117, 118, 119, 120, 121, 122, 123, 124, 125, 126, 127, 128, 129, 130, 131, 132, 133, 134, 135, 136, 137, 138, 139, 140, 141, 142, 143, 144, 145, 146, 147, 148, 149, 150, 151, 152, 153, 154, 155, 156, 157, 158, 159, 160, 161, 162, 163, 164, 165, 166, 167, 168, 169, 170, 171, 172, 173, 174, 175, 176, 177, 178, 179, 180, 181, 182, 183, 184, 185, 186, 187, 188, 189, 190, 191, 192, 193, 194, 195, 196, 197, 198, 199, 200, 201, 202, 203, 204, 205, 206, 207, 208, 209, 210, 211, 212, 213, 214, 215, 216, 217, 218, 219, 220, 221, 222, 223, 224, 225, 226, 227, 228, 229, 230, 231, 232, 233, 234, 235, 236, 237, 238, 239, 240, 241, 242, 243, 244, 245, 246, 247, 248, 249, 250, 251, 252, 253, 254, 255, 256, 257, 258, 259, 260, 261, 262, 263, 264, 265, 266, 267, 268, 269, 270, 271, 272, 273, 274, 275, 276, 277, 278, 279, 280, 281, 282, 283, 284, 285, 286, 287, 288, 289, 290, 291, 292, 293, 294, 295, 296, 297, 298, 299, 300, 301, 302, 303, 304, 305, 306, 307, 308, 309, 310, 311, 312, 313, 314, 315, 316, 317, 318, 319, 320, 321, 322, 323, 324, 325, 326, 327, 328, 329, 330, 331, 332, 333, 334, 335, 336, 337, 338, 339, 340, 341, 342, 343, 344, 345, 346, 347, 348, 349, 350, 351, 352, 353, 354, 355, 356, 357, 358, 359, 360, 361, 362, 363, 364, 365, 366, 367, 368, 369, 370, 371, 372, 373, 374, 375, 376, 377, 378, 379, 380, 381, 382, 383, 384, 385, 386, 387, 388, 389, 390, 391, 392, 393, 394, 395, 396, 397, 398, 399, 400],
      "AcquisitionTime": ["193505.660000", "193507.165000", "193508.672500", "193510.177500", "193511.682500", "193513.190000", "193514.695000", "193516.202500", "193517.707500", "193519.212500", "193520.720000", "193522.225000", "193523.732500", "193525.237500", "193526.742500", "193528.250000", "193529.755000", "193531.262500", "193532.767500", "193534.275000", "193535.780000", "193537.285000", "193538.792500", "193540.297500", "193541.805000", "193543.310000", "193544.815000", "193546.322500", "193547.827500", "193549.335000", "193550.840000", "193552.345000", "193553.852500", "193555.357500", "193556.865000", "193558.370000", "193559.875000", "193601.382500", "193602.887500", "193604.395000", "193605.900000", "193607.407500", "193608.912500", "193610.417500", "193611.925000", "193613.430000", "193614.937500", "193616.442500", "193617.947500", "193619.455000", "193620.960000", "193622.467500", "193623.972500", "193625.477500", "193626.985000", "193628.490000", "193629.997500", "193631.502500", "193633.010000", "193634.515000", "193636.020000", "193637.527500", "193639.032500", "193640.540000", "193642.045000", "193643.550000", "193645.057500", "193646.562500", "193648.070000", "193649.575000", "193651.080000", "193652.587500", "193654.092500", "193655.600000", "193657.105000", "193658.610000", "193700.117500", "193701.622500", "193703.130000", "193704.635000", "193706.142500", "193707.647500", "193709.152500", "193710.660000", "193712.165000", "193713.672500", "193715.177500", "193716.682500", "193718.190000", "193719.695000", "193721.202500", "193722.707500", "193724.212500", "193725.720000", "193727.225000", "193728.732500", "193730.237500", "193731.742500", "193733.250000", "193734.755000", "193736.262500", "193737.767500", "193739.275000", "193740.780000", "193742.285000", "193743.792500", "193745.297500", "193746.805000", "193748.310000", "193749.815000", "193751.322500", "193752.827500", "193754.335000", "193755.840000", "193757.345000", "193758.852500", "193800.357500", "193801.865000", "193803.370000", "193804.875000", "193806.382500", "193807.887500", "193809.395000", "193810.900000", "193812.407500", "193813.912500", "193815.417500", "193816.925000", "193818.430000", "193819.937500", "193821.442500", "193822.947500", "193824.455000", "193825.960000", "193827.467500", "193828.972500", "193830.477500", "193831.985000", "193833.490000", "193834.997500", "193836.502500", "193838.010000", "193839.515000", "193841.020000", "193842.527500", "193844.032500", "193845.540000", "193847.045000", "193848.550000", "193850.057500", "193851.562500", "193853.070000", "193854.575000", "193856.080000", "193857.587500", "193859.092500", "193900.600000", "193902.105000", "193903.610000", "193905.117500", "193906.622500", "193908.130000", "193909.635000", "193911.142500", "193912.647500", "193914.152500", "193915.660000", "193917.165000", "193918.672500", "193920.177500", "193921.682500", "193923.190000", "193924.695000", "193926.202500", "193927.707500", "193929.212500", "193930.720000", "193932.225000", "193933.732500", "193935.237500", "193936.742500", "193938.250000", "193939.755000", "193941.262500", "193942.767500", "193944.275000", "193945.780000", "193947.285000", "193948.792500", "193950.297500", "193951.805000", "193953.310000", "193954.815000", "193956.322500", "193957.827500", "193959.335000", "194000.840000", "194002.345000", "194003.852500", "194005.357500", "194006.865000", "194008.370000", "194009.875000", "194011.382500", "194012.887500", "194014.395000", "194015.900000", "194017.407500", "194018.912500", "194020.417500", "194021.925000", "194023.430000", "194024.937500", "194026.442500", "194027.947500", "194029.455000", "194030.960000", "194032.467500", "194033.972500", "194035.477500", "194036.985000", "194038.490000", "194039.997500", "194041.502500", "194043.010000", "194044.515000", "194046.020000", "194047.527500", "194049.032500", "194050.540000", "194052.045000", "194053.550000", "194055.057500", "194056.562500", "194058.070000", "194059.575000", "194101.080000", "194102.587500", "194104.092500", "194105.600000", "194107.105000", "194108.610000", "194110.117500", "194111.622500", "194113.130000", "194114.635000", "194116.142500", "194117.647500", "194119.152500", "194120.660000", "194122.165000", "194123.672500", "194125.177500", "194126.682500", "194128.190000", "194129.695000", "194131.202500", "194132.707500", "194134.212500", "194135.720000", "194137.225000", "194138.732500", "194140.237500", "194141.742500", "194143.250000", "194144.755000", "194146.262500", "194147.767500", "194149.275000", "194150.780000", "194152.285000", "194153.792500", "194155.297500", "194156.805000", "194158.310000", "194159.815000", "194201.322500", "194202.827500", "194204.335000", "194205.840000", "194207.345000", "194208.852500", "194210.357500", "194211.865000", "194213.370000", "194214.875000", "194216.382500", "194217.887500", "194219.395000", "194220.900000", "194222.407500", "194223.912500", "194225.417500", "194226.925000", "194228.430000", "194229.937500", "194231.442500", "194232.947500", "194234.455000", "194235.960000", "194237.467500", "194238.972500", "194240.477500", "194241.985000", "194243.490000", "194244.997500", "194246.502500", "194248.010000", "194249.515000", "194251.020000", "194252.527500", "194254.032500", "194255.540000", "194257.045000", "194258.550000", "194300.057500", "194301.562500", "194303.070000", "194304.575000", "194306.080000", "194307.587500", "194309.092500", "194310.600000", "194312.105000", "194313.610000", "194315.117500", "194316.622500", "194318.130000", "194319.635000", "194321.142500", "194322.647500", "194324.152500", "194325.660000", "194327.165000", "194328.672500", "194330.177500", "194331.682500", "194333.190000", "194334.695000", "194336.202500", "194337.707500", "194339.212500", "194340.720000", "194342.225000", "194343.732500", "194345.237500", "194346.742500", "194348.250000", "194349.755000", "194351.262500", "194352.767500", "194354.275000", "194355.780000", "194357.285000", "194358.792500", "194400.297500", "194401.805000", "194403.310000", "194404.815000", "194406.322500", "194407.827500", "194409.335000", "194410.840000", "194412.345000", "194413.852500", "194415.357500", "194416.865000", "194418.370000", "194419.875000", "194421.382500", "194422.887500", "194424.395000", "194425.900000", "194427.407500", "194428.912500", "194430.417500", "194431.925000", "194433.430000", "194434.937500", "194436.442500", "194437.947500", "194439.455000", "194440.960000", "194442.467500", "194443.972500", "194445.477500", "194446.985000", "194448.490000", "194449.997500", "194451.502500", "194453.010000", "194454.515000", "194456.020000", "194457.527500", "194459.032500", "194500.540000", "194502.045000", "194503.550000", "194505.057500", "194506.562500"],
      "ContentTime": ["193516.765000", "193517.265000", "193517.765000", "193518.265000", "193518.765000", "193520.265000", "193521.265000", "193522.265000", "193523.265000", "193524.265000", "193525.265000", "193526.765000", "193527.765000", "193529.265000", "193530.765000", "193532.265000", "193533.765000", "193535.265000", "193536.765000", "193538.265000", "193539.765000", "193541.265000", "193542.765000", "193544.265000", "193545.765000", "193547.265000", "193548.765000", "193550.265000", "193551.765000", "193553.265000", "193554.765000", "193556.265000", "193557.765000", "193559.265000", "193600.765000", "193602.265000", "193603.765000", "193605.265000", "193606.765000", "193608.265000", "193609.765000", "193611.265000", "193612.765000", "193614.265000", "193615.765000", "193617.265000", "193618.765000", "193620.265000", "193621.765000", "193623.265000", "193624.765000", "193626.265000", "193627.765000", "193629.265000", "193630.765000", "193632.265000", "193633.765000", "193635.265000", "193636.765000", "193638.265000", "193639.765000", "193641.265000", "193642.765000", "193644.265000", "193645.765000", "193647.265000", "193648.765000", "193650.265000", "193651.765000", "193653.265000", "193654.765000", "193656.265000", "193657.765000", "193659.265000", "193700.765000", "193702.265000", "193703.765000", "193705.265000", "193706.765000", "193708.265000", "193709.765000", "193711.265000", "193712.765000", "193714.265000", "193715.765000", "193717.265000", "193718.765000", "193720.265000", "193721.765000", "193723.265000", "193724.765000", "193726.265000", "193727.765000", "193729.265000", "193730.765000", "193732.265000", "193733.765000", "193735.265000", "193736.765000", "193738.265000", "193739.765000", "193741.265000", "193742.765000", "193744.265000", "193745.765000", "193747.265000", "193748.765000", "193750.265000", "193751.765000", "193753.265000", "193754.765000", "193756.265000", "193757.765000", "193759.265000", "193800.765000", "193802.265000", "193803.765000", "193805.265000", "193806.765000", "193808.265000", "193809.765000", "193811.265000", "193812.765000", "193814.265000", "193815.765000", "193817.265000", "193818.765000", "193820.265000", "193821.765000", "193823.265000", "193824.765000", "193826.265000", "193827.765000", "193829.265000", "193830.765000", "193832.265000", "193833.765000", "193835.265000", "193836.765000", "193838.265000", "193839.765000", "193841.265000", "193842.765000", "193844.265000", "193845.765000", "193847.265000", "193848.765000", "193850.265000", "193851.765000", "193853.265000", "193854.765000", "193856.265000", "193857.765000", "193859.265000", "193900.765000", "193902.265000", "193903.765000", "193905.265000", "193906.765000", "193908.265000", "193909.765000", "193911.265000", "193912.765000", "193914.265000", "193915.765000", "193917.265000", "193918.765000", "193920.265000", "193921.765000", "193923.265000", "193924.765000", "193926.265000", "193927.765000", "193929.265000", "193930.765000", "193932.265000", "193933.765000", "193935.265000", "193936.765000", "193938.265000", "193939.765000", "193941.265000", "193942.765000", "193944.265000", "193945.765000", "193947.265000", "193948.765000", "193950.265000", "193951.765000", "193953.265000", "193954.765000", "193956.265000", "193957.765000", "193959.265000", "194000.765000", "194002.265000", "194003.765000", "194005.265000", "194006.765000", "194008.265000", "194009.765000", "194011.265000", "194012.765000", "194014.265000", "194015.765000", "194017.265000", "194018.765000", "194020.265000", "194021.765000", "194023.265000", "194024.765000", "194026.265000", "194027.765000", "194029.265000", "194030.765000", "194032.265000", "194033.765000", "194035.265000", "194036.765000", "194038.265000", "194039.765000", "194041.265000", "194042.765000", "194044.265000", "194045.765000", "194047.265000", "194048.765000", "194050.265000", "194051.765000", "194053.265000", "194054.765000", "194056.265000", "194057.765000", "194059.265000", "194100.765000", "194102.265000", "194103.765000", "194105.265000", "194106.765000", "194108.265000", "194109.765000", "194111.265000", "194112.765000", "194114.265000", "194115.765000", "194117.265000", "194118.765000", "194120.265000", "194121.765000", "194123.265000", "194124.765000", "194126.265000", "194127.765000", "194129.265000", "194130.765000", "194132.265000", "194133.765000", "194135.265000", "194136.765000", "194138.265000", "194139.765000", "194141.265000", "194142.765000", "194144.265000", "194145.765000", "194147.265000", "194148.765000", "194150.265000", "194151.765000", "194153.265000", "194154.765000", "194156.265000", "194157.765000", "194159.265000", "194200.765000", "194202.265000", "194203.765000", "194205.265000", "194206.765000", "194208.265000", "194209.765000", "194211.265000", "194212.765000", "194214.265000", "194215.765000", "194217.265000", "194218.765000", "194220.265000", "194221.765000", "194223.265000", "194224.765000", "194226.265000", "194227.765000", "194229.265000", "194230.765000", "194232.265000", "194233.765000", "194235.265000", "194236.765000", "194238.265000", "194239.765000", "194241.265000", "194242.765000", "194244.265000", "194245.765000", "194247.265000", "194248.765000", "194250.265000", "194251.765000", "194253.265000", "194254.765000", "194256.265000", "194257.765000", "194259.265000", "194300.765000", "194302.265000", "194303.765000", "194305.265000", "194306.765000", "194308.265000", "194309.765000", "194311.265000", "194312.765000", "194314.265000", "194315.765000", "194317.265000", "194318.765000", "194320.265000", "194321.765000", "194323.265000", "194324.765000", "194326.265000", "194327.765000", "194329.265000", "194330.765000", "194332.265000", "194333.765000", "194335.265000", "194336.765000", "194338.265000", "194339.765000", "194341.265000", "194342.765000", "194344.265000", "194345.765000", "194347.265000", "194348.765000", "194350.265000", "194351.765000", "194353.265000", "194354.765000", "194356.265000", "194357.765000", "194359.265000", "194400.765000", "194402.265000", "194403.765000", "194405.265000", "194406.765000", "194408.265000", "194409.765000", "194411.265000", "194412.765000", "194414.265000", "194415.765000", "194417.265000", "194418.765000", "194420.265000", "194421.765000", "194423.265000", "194424.765000", "194426.265000", "194427.765000", "194429.265000", "194430.765000", "194432.265000", "194433.765000", "194435.265000", "194436.765000", "194438.265000", "194439.765000", "194441.265000", "194442.765000", "194444.265000", "194445.765000", "194447.265000", "194448.765000", "194450.265000", "194451.765000", "194453.265000", "194454.765000", "194456.265000", "194457.765000", "194459.265000", "194500.765000", "194502.265000", "194503.765000", "194505.265000", "194506.765000", "194513.140000"],
      "InstanceCreationTime": ["193516.765000", "193517.265000", "193517.765000", "193518.265000", "193518.765000", "193520.265000", "193521.265000", "193522.265000", "193523.265000", "193524.265000", "193525.265000", "193526.765000", "193527.765000", "193529.265000", "193530.765000", "193532.265000", "193533.765000", "193535.265000", "193536.765000", "193538.265000", "193539.765000", "193541.265000", "193542.765000", "193544.265000", "193545.765000", "193547.265000", "193548.765000", "193550.265000", "193551.765000", "193553.265000", "193554.765000", "193556.265000", "193557.765000", "193559.265000", "193600.765000", "193602.265000", "193603.765000", "193605.265000", "193606.765000", "193608.265000", "193609.765000", "193611.265000", "193612.765000", "193614.265000", "193615.765000", "193617.265000", "193618.765000", "193620.265000", "193621.765000", "193623.265000", "193624.765000", "193626.265000", "193627.765000", "193629.265000", "193630.765000", "193632.265000", "193633.765000", "193635.265000", "193636.765000", "193638.265000", "193639.765000", "193641.265000", "193642.765000", "193644.265000", "193645.765000", "193647.265000", "193648.765000", "193650.265000", "193651.765000", "193653.265000", "193654.765000", "193656.265000", "193657.765000", "193659.265000", "193700.765000", "193702.265000", "193703.765000", "193705.265000", "193706.765000", "193708.265000", "193709.765000", "193711.265000", "193712.765000", "193714.265000", "193715.765000", "193717.265000", "193718.765000", "193720.265000", "193721.765000", "193723.265000", "193724.765000", "193726.265000", "193727.765000", "193729.265000", "193730.765000", "193732.265000", "193733.765000", "193735.265000", "193736.765000", "193738.265000", "193739.765000", "193741.265000", "193742.765000", "193744.265000", "193745.765000", "193747.265000", "193748.765000", "193750.265000", "193751.765000", "193753.265000", "193754.765000", "193756.265000", "193757.765000", "193759.265000", "193800.765000", "193802.265000", "193803.765000", "193805.265000", "193806.765000", "193808.265000", "193809.765000", "193811.265000", "193812.765000", "193814.265000", "193815.765000", "193817.265000", "193818.765000", "193820.265000", "193821.765000", "193823.265000", "193824.765000", "193826.265000", "193827.765000", "193829.265000", "193830.765000", "193832.265000", "193833.765000", "193835.265000", "193836.765000", "193838.265000", "193839.765000", "193841.265000", "193842.765000", "193844.265000", "193845.765000", "193847.265000", "193848.765000", "193850.265000", "193851.765000", "193853.265000", "193854.765000", "193856.265000", "193857.765000", "193859.265000", "193900.765000", "193902.265000", "193903.765000", "193905.265000", "193906.765000", "193908.265000", "193909.765000", "193911.265000", "193912.765000", "193914.265000", "193915.765000", "193917.265000", "193918.765000", "193920.265000", "193921.765000", "193923.265000", "193924.765000", "193926.265000", "193927.765000", "193929.265000", "193930.765000", "193932.265000", "193933.765000", "193935.265000", "193936.765000", "193938.265000", "193939.765000", "193941.265000", "193942.765000", "193944.265000", "193945.765000", "193947.265000", "193948.765000", "193950.265000", "193951.765000", "193953.265000", "193954.765000", "193956.265000", "193957.765000", "193959.265000", "194000.765000", "194002.265000", "194003.765000", "194005.265000", "194006.765000", "194008.265000", "194009.765000", "194011.265000", "194012.765000", "194014.265000", "194015.765000", "194017.265000", "194018.765000", "194020.265000", "194021.765000", "194023.265000", "194024.765000", "194026.265000", "194027.765000", "194029.265000", "194030.765000", "194032.265000", "194033.765000", "194035.265000", "194036.765000", "194038.265000", "194039.765000", "194041.265000", "194042.765000", "194044.265000", "194045.765000", "194047.265000", "194048.765000", "194050.265000", "194051.765000", "194053.265000", "194054.765000", "194056.265000", "194057.765000", "194059.265000", "194100.765000", "194102.265000", "194103.765000", "194105.265000", "194106.765000", "194108.265000", "194109.765000", "194111.265000", "194112.765000", "194114.265000", "194115.765000", "194117.265000", "194118.765000", "194120.265000", "194121.765000", "194123.265000", "194124.765000", "194126.265000", "194127.765000", "194129.265000", "194130.765000", "194132.265000", "194133.765000", "194135.265000", "194136.765000", "194138.265000", "194139.765000", "194141.265000", "194142.765000", "194144.265000", "194145.765000", "194147.265000", "194148.765000", "194150.265000", "194151.765000", "194153.265000", "194154.765000", "194156.265000", "194157.765000", "194159.265000", "194200.765000", "194202.265000", "194203.765000", "194205.265000", "194206.765000", "194208.265000", "194209.765000", "194211.265000", "194212.765000", "194214.265000", "194215.765000", "194217.265000", "194218.765000", "194220.265000", "194221.765000", "194223.265000", "194224.765000", "194226.265000", "194227.765000", "194229.265000", "194230.765000", "194232.265000", "194233.765000", "194235.265000", "194236.765000", "194238.265000", "194239.765000", "194241.265000", "194242.765000", "194244.265000", "194245.765000", "194247.265000", "194248.765000", "194250.265000", "194251.765000", "194253.265000", "194254.765000", "194256.265000", "194257.765000", "194259.265000", "194300.765000", "194302.265000", "194303.765000", "194305.265000", "194306.765000", "194308.265000", "194309.765000", "194311.265000", "194312.765000", "194314.265000", "194315.765000", "194317.265000", "194318.765000", "194320.265000", "194321.765000", "194323.265000", "194324.765000", "194326.265000", "194327.765000", "194329.265000", "194330.765000", "194332.265000", "194333.765000", "194335.265000", "194336.765000", "194338.265000", "194339.765000", "194341.265000", "194342.765000", "194344.265000", "194345.765000", "194347.265000", "194348.765000", "194350.265000", "194351.765000", "194353.265000", "194354.765000", "194356.265000", "194357.765000", "194359.265000", "194400.765000", "194402.265000", "194403.765000", "194405.265000", "194406.765000", "194408.265000", "194409.765000", "194411.265000", "194412.765000", "194414.265000", "194415.765000", "194417.265000", "194418.765000", "194420.265000", "194421.765000", "194423.265000", "194424.765000", "194426.265000", "194427.765000", "194429.265000", "194430.765000", "194432.265000", "194433.765000", "194435.265000", "194436.765000", "194438.265000", "194439.765000", "194441.265000", "194442.765000", "194444.265000", "194445.765000", "194447.265000", "194448.765000", "194450.265000", "194451.765000", "194453.265000", "194454.765000", "194456.265000", "194457.765000", "194459.265000", "194500.765000", "194502.265000", "194503.765000", "194505.265000", "194506.765000", "194513.140000"],
      "InstanceNumber": [1, 2, 3, 4, 5, 6, 7, 8, 9, 10, 11, 12, 13, 14, 15, 16, 17, 18, 19, 20, 21, 22, 23, 24, 25, 26, 27, 28, 29, 30, 31, 32, 33, 34, 35, 36, 37, 38, 39, 40, 41, 42, 43, 44, 45, 46, 47, 48, 49, 50, 51, 52, 53, 54, 55, 56, 57, 58, 59, 60, 61, 62, 63, 64, 65, 66, 67, 68, 69, 70, 71, 72, 73, 74, 75, 76, 77, 78, 79, 80, 81, 82, 83, 84, 85, 86, 87, 88, 89, 90, 91, 92, 93, 94, 95, 96, 97, 98, 99, 100, 101, 102, 103, 104, 105, 106, 107, 108, 109, 110, 111, 112, 113, 114, 115, 116, 117, 118, 119, 120, 121, 122, 123, 124, 125, 126, 127, 128, 129, 130, 131, 132, 133, 134, 135, 136, 137, 138, 139, 140, 141, 142, 143, 144, 145, 146, 147, 148, 149, 150, 151, 152, 153, 154, 155, 156, 157, 158, 159, 160, 161, 162, 163, 164, 165, 166, 167, 168, 169, 170, 171, 172, 173, 174, 175, 176, 177, 178, 179, 180, 181, 182, 183, 184, 185, 186, 187, 188, 189, 190, 191, 192, 193, 194, 195, 196, 197, 198, 199, 200, 201, 202, 203, 204, 205, 206, 207, 208, 209, 210, 211, 212, 213, 214, 215, 216, 217, 218, 219, 220, 221, 222, 223, 224, 225, 226, 227, 228, 229, 230, 231, 232, 233, 234, 235, 236, 237, 238, 239, 240, 241, 242, 243, 244, 245, 246, 247, 248, 249, 250, 251, 252, 253, 254, 255, 256, 257, 258, 259, 260, 261, 262, 263, 264, 265, 266, 267, 268, 269, 270, 271, 272, 273, 274, 275, 276, 277, 278, 279, 280, 281, 282, 283, 284, 285, 286, 287, 288, 289, 290, 291, 292, 293, 294, 295, 296, 297, 298, 299, 300, 301, 302, 303, 304, 305, 306, 307, 308, 309, 310, 311, 312, 313, 314, 315, 316, 317, 318, 319, 320, 321, 322, 323, 324, 325, 326, 327, 328, 329, 330, 331, 332, 333, 334, 335, 336, 337, 338, 339, 340, 341, 342, 343, 344, 345, 346, 347, 348, 349, 350, 351, 352, 353, 354, 355, 356, 357, 358, 359, 360, 361, 362, 363, 364, 365, 366, 367, 368, 369, 370, 371, 372, 373, 374, 375, 376, 377, 378, 379, 380, 381, 382, 383, 384, 385, 386, 387, 388, 389, 390, 391, 392, 393, 394, 395, 396, 397, 398, 399, 400],
