{
  "AcquisitionMatrixPE": 188,
  "AcquisitionNumber": 1,
  "AcquisitionTime": "17:58:49.755000",
  "BandwidthPerPixelPhaseEncode": 19.46,
  "BaseResolution": 188,
  "ConversionSoftware": "dcm2niix",
  "ConversionSoftwareVersion": "v1.0.20180606 GCC4.8.5",
  "DelayTime": 1.2,
  "DerivedVendorReportedEchoSpacing": 0.000820013,
  "DeviceSerialNumber": "18930",
  "DwellTime": 1.9e-06,
  "EchoTime": 0.02,
  "EffectiveEchoSpacing": 0.000273338,
  "FlipAngle": 80,
  "ImageComments": "Unaliased_MB2_PE2",
  "ImageOrientationPatientDICOM": [0.999286, 0.00236239, 0.0377002, 0.036887, 0.154005, -0.987381],
  "ImageType": [
    "ORIGINAL",
    "PRIMARY",
    "M",
    "MB",
    "ND",
    "MOSAIC"
],
  "InPlanePhaseEncodingDirectionDICOM": "COL",
  "InstitutionAddress": "Oxfordlaan_55_Maastricht_753AAF_Limburg_NL_6229_EV",
  "InstitutionName": "Scannexus",
  "InstitutionalDepartmentName": "MRI_7T",
  "MRAcquisitionType": "2D",
  "MagneticFieldStrength": 6.98,
  "Manufacturer": "Siemens",
  "ManufacturersModelName": "Investigational_Device_7T",
  "Modality": "MR",
  "MultibandAccelerationFactor": 2,
  "ParallelReductionFactorInPlane": 3,
  "PartialFourier": 0.75,
  "PatientPosition": "HFS",
  "PercentPhaseFOV": 100,
  "PhaseEncodingDirection": "j",
  "PhaseEncodingSteps": 141,
  "PhaseResolution": 1,
  "PixelBandwidth": 1400,
  "ProcedureStepDescription": "FeDem_Faruk",
  "ProtocolName": "cmrr_mbep2d_bold_AP_run2",
  "PulseSequenceDetails": "%CustomerSeq%_cmrr_mbep2d_bold",
  "ReceiveCoilName": "32Ch_Head_7T",
  "ReconMatrixPE": 188,
  "RepetitionTime": 2.6,
  "SAR": 0.0637422,
  "ScanOptions": "PFP_FS",
  "ScanningSequence": "EP",
  "SequenceName": "epfid2d1_188",
  "SequenceVariant": "SK_SS",
  "SeriesDescription": "cmrr_mbep2d_bold_AP_run2",
  "SeriesNumber": 13,
  "ShimSetting": [99, -96, 385, 439, -181, 19, 196, 170],
  "SliceThickness": 1.1,
  "SliceTiming": [0, 0.7325, 0.06, 0.7925, 0.12, 0.855, 0.1825, 0.915, 0.2425, 0.9775, 0.305, 1.0375, 0.365, 1.1, 0.4275, 1.16, 0.4875, 1.22, 0.55, 1.2825, 0.61, 1.3425, 0.67, 0, 0.7325, 0.06, 0.7925, 0.12, 0.855, 0.1825, 0.915, 0.2425, 0.9775, 0.305, 1.0375, 0.365, 1.1, 0.4275, 1.16, 0.4875, 1.22, 0.55, 1.2825, 0.61, 1.3425, 0.67],
  "SoftwareVersions": "syngo_MR_B17",
  "SpacingBetweenSlices": 1.1,
  "StationName": "MRC18930",
  "TaskName": "auditory",
  "TotalReadoutTime": 0.0511141,
  "TxRefAmp": 211,
  "dcmmeta_affine": [
    [-1.0949627161026, 0.04041874036192894, 0.008952437900006771, 97.66889953613281],
    [-0.002588572446256876, 0.16874977946281433, -1.0868732929229736, 28.965768814086914],
    [0.04130982235074043, 1.0819178819656372, 0.1691882312297821, -125.53909301757812],
    [0.0, 0.0, 0.0, 1.0]
],
  "dcmmeta_reorient_transform": [
    [0.0, -1.0, 0.0, 187.0],
    [1.0, 0.0, 0.0, 0.0],
    [0.0, 0.0, 1.0, 0.0],
    [0.0, 0.0, 0.0, 1.0]
],
  "dcmmeta_shape": [188, 188, 46, 150],
  "dcmmeta_slice_dim": 2,
  "dcmmeta_version": 0.6,
  "global": {
    "const": {
      "AcquisitionMatrix": [188, 0, 0, 188],
      "AngioFlag": "N",
      "BitsAllocated": 16,
      "BitsStored": 12,
      "Columns": 1316,
      "EchoNumbers": 1,
      "EchoTime": 20.0,
      "EchoTrainLength": 1,
      "FlipAngle": 80.0,
      "HighBit": 11,
      "ImageOrientationPatient": [0.9992863014427, 0.0023623863258, 0.03770022386964, 0.03688700540101, 0.15400465001157, -0.9873813430521],
      "ImagePositionPatient": [-745.58233320233, -157.15681018518, 663.68251557367],
      "ImageType": [
        "ORIGINAL",
        "PRIMARY",
        "M",
        "MB",
        "ND",
        "MOSAIC"
],
      "ImagedNucleus": "1H",
      "ImagingFrequency": 297.205606,
      "InPlanePhaseEncodingDirection": "COL",
      "LargestImagePixelValue": 4095,
      "MRAcquisitionType": "2D",
      "MagneticFieldStrength": 6.98,
      "Manufacturer": "SIEMENS",
      "ManufacturerModelName": "Investigational_Device_7T",
      "Modality": "MR",
      "NumberOfAverages": 1.0,
      "NumberOfPhaseEncodingSteps": 141,
      "PercentPhaseFieldOfView": 100.0,
      "PercentSampling": 100.0,
      "PerformedProcedureStepStartTime": "172433.343000",
      "PhotometricInterpretation": "MONOCHROME2",
      "PixelBandwidth": 1400.0,
      "PixelRepresentation": 0,
      "PixelSpacing": [1.0957447290421, 1.0957447290421],
      "ProtocolName": "cmrr_mbep2d_bold_AP_run2",
      "RepetitionTime": 2600.0,
      "Rows": 1316,
      "SAR": 0.06374217665138,
      "SamplesPerPixel": 1,
      "ScanOptions": [
        "PFP",
        "FS"
],
      "ScanningSequence": "EP",
      "SequenceName": "epfid2d1_188",
      "SequenceVariant": [
        "SK",
        "SS"
],
      "SeriesDescription": "cmrr_mbep2d_bold_AP_run2",
      "SeriesNumber": 13,
      "SeriesTime": "175858.765000",
      "SliceLocation": -47.134106943425,
      "SliceThickness": 1.1000000238419,
      "SmallestImagePixelValue": 0,
      "SoftwareVersions": "syngo MR B17",
      "SpacingBetweenSlices": 1.0999992311947,
      "SpecificCharacterSet": "ISO_IR 100",
      "StudyID": "1",
      "StudyTime": "172433.281000",
      "TransmitCoilName": "32Ch_Head_7T",
      "VariableFlipAngleFlag": "N",
      "WindowCenterWidthExplanation": "Algo1",
      "dBdt": 0.0},
    "slices": {}
  },
  "time": {
    "samples": {
      "AcquisitionNumber": [1, 2, 3, 4, 5, 6, 7, 8, 9, 10, 11, 12, 13, 14, 15, 16, 17, 18, 19, 20, 21, 22, 23, 24, 25, 26, 27, 28, 29, 30, 31, 32, 33, 34, 35, 36, 37, 38, 39, 40, 41, 42, 43, 44, 45, 46, 47, 48, 49, 50, 51, 52, 53, 54, 55, 56, 57, 58, 59, 60, 61, 62, 63, 64, 65, 66, 67, 68, 69, 70, 71, 72, 73, 74, 75, 76, 77, 78, 79, 80, 81, 82, 83, 84, 85, 86, 87, 88, 89, 90, 91, 92, 93, 94, 95, 96, 97, 98, 99, 100, 101, 102, 103, 104, 105, 106, 107, 108, 109, 110, 111, 112, 113, 114, 115, 116, 117, 118, 119, 120, 121, 122, 123, 124, 125, 126, 127, 128, 129, 130, 131, 132, 133, 134, 135, 136, 137, 138, 139, 140, 141, 142, 143, 144, 145, 146, 147, 148, 149, 150],
      "AcquisitionTime": ["175849.755000", "175852.365000", "175854.975000", "175857.585000", "175900.195000", "175902.805000", "175905.417500", "175908.027500", "175910.637500", "175913.247500", "175915.857500", "175918.470000", "175921.080000", "175923.690000", "175926.300000", "175928.910000", "175931.520000", "175934.132500", "175936.742500", "175939.352500", "175941.962500", "175944.572500", "175947.182500", "175949.795000", "175952.405000", "175955.015000", "175957.625000", "180000.235000", "180002.847500", "180005.457500", "180008.067500", "180010.677500", "180013.287500", "180015.897500", "180018.510000", "180021.120000", "180023.730000", "180026.340000", "180028.950000", "180031.560000", "180034.172500", "180036.782500", "180039.392500", "180042.002500", "180044.612500", "180047.225000", "180049.835000", "180052.445000", "180055.055000", "180057.665000", "180100.275000", "180102.887500", "180105.497500", "180108.107500", "180110.717500", "180113.327500", "180115.937500", "180118.550000", "180121.160000", "180123.770000", "180126.380000", "180128.990000", "180131.602500", "180134.212500", "180136.822500", "180139.432500", "180142.042500", "180144.652500", "180147.265000", "180149.875000", "180152.485000", "180155.095000", "180157.705000", "180200.315000", "180202.927500", "180205.537500", "180208.147500", "180210.757500", "180213.367500", "180215.980000", "180218.590000", "180221.200000", "180223.810000", "180226.420000", "180229.030000", "180231.642500", "180234.252500", "180236.862500", "180239.472500", "180242.082500", "180244.692500", "180247.305000", "180249.915000", "180252.525000", "180255.135000", "180257.745000", "180300.357500", "180302.967500", "180305.577500", "180308.187500", "180310.797500", "180313.407500", "180316.020000", "180318.630000", "180321.240000", "180323.850000", "180326.460000", "180329.070000", "180331.682500", "180334.292500", "180336.902500", "180339.512500", "180342.122500", "180344.735000", "180347.345000", "180349.955000", "180352.565000", "180355.175000", "180357.785000", "180400.397500", "180403.007500", "180405.617500", "180408.227500", "180410.837500", "180413.447500", "180416.060000", "180418.670000", "180421.280000", "180423.890000", "180426.500000", "180429.112500", "180431.722500", "180434.332500", "180436.942500", "180439.552500", "180442.162500", "180444.775000", "180447.385000", "180449.995000", "180452.605000", "180455.215000", "180457.827500", "180500.437500", "180503.047500", "180505.657500", "180508.267500", "180510.877500", "180513.490000", "180516.100000", "180518.710000"],
      "ContentTime": ["175858.781000", "175858.781000", "175859.265000", "175901.765000", "175904.265000", "175907.265000", "175909.765000", "175912.265000", "175914.765000", "175917.265000", "175920.265000", "175922.765000", "175925.265000", "175927.765000", "175930.265000", "175933.265000", "175935.765000", "175938.265000", "175940.765000", "175943.265000", "175946.265000", "175948.765000", "175951.265000", "175953.765000", "175956.265000", "175959.265000", "180001.765000", "180004.265000", "180006.765000", "180009.265000", "180012.265000", "180014.765000", "180017.265000", "180019.765000", "180022.265000", "180025.265000", "180027.765000", "180030.265000", "180032.765000", "180035.265000", "180038.265000", "180040.765000", "180043.265000", "180045.765000", "180048.265000", "180051.265000", "180053.765000", "180056.265000", "180058.765000", "180101.265000", "180104.265000", "180106.765000", "180109.265000", "180111.765000", "180114.265000", "180117.265000", "180119.765000", "180122.265000", "180124.765000", "180127.265000", "180130.265000", "180132.765000", "180135.265000", "180137.765000", "180140.265000", "180143.265000", "180145.765000", "180148.265000", "180150.765000", "180153.265000", "180156.265000", "180158.765000", "180201.265000", "180203.765000", "180206.265000", "180209.265000", "180211.765000", "180214.265000", "180216.765000", "180219.265000", "180222.265000", "180224.765000", "180227.265000", "180229.765000", "180232.265000", "180235.265000", "180237.765000", "180240.265000", "180242.765000", "180245.265000", "180248.265000", "180250.765000", "180253.265000", "180255.765000", "180258.265000", "180301.265000", "180303.765000", "180306.265000", "180308.765000", "180311.265000", "180314.265000", "180316.765000", "180319.265000", "180321.765000", "180324.265000", "180327.265000", "180329.765000", "180332.265000", "180334.765000", "180337.265000", "180340.265000", "180342.765000", "180345.265000", "180347.765000", "180350.265000", "180353.265000", "180355.765000", "180358.265000", "180400.765000", "180403.265000", "180406.265000", "180408.765000", "180411.265000", "180413.765000", "180416.265000", "180419.265000", "180421.765000", "180424.265000", "180426.765000", "180429.265000", "180432.265000", "180434.765000", "180437.265000", "180439.765000", "180442.265000", "180445.265000", "180447.765000", "180450.265000", "180452.765000", "180455.265000", "180458.265000", "180500.765000", "180503.265000", "180505.765000", "180508.265000", "180511.265000", "180513.765000", "180516.265000", "180518.765000", "180526.171000"],
      "InstanceCreationTime": ["175858.781000", "175858.781000", "175859.265000", "175901.765000", "175904.265000", "175907.265000", "175909.765000", "175912.265000", "175914.765000", "175917.265000", "175920.265000", "175922.765000", "175925.265000", "175927.765000", "175930.265000", "175933.265000", "175935.765000", "175938.265000", "175940.765000", "175943.265000", "175946.265000", "175948.765000", "175951.265000", "175953.765000", "175956.265000", "175959.265000", "180001.765000", "180004.265000", "180006.765000", "180009.265000", "180012.265000", "180014.765000", "180017.265000", "180019.765000", "180022.265000", "180025.265000", "180027.765000", "180030.265000", "180032.765000", "180035.265000", "180038.265000", "180040.765000", "180043.265000", "180045.765000", "180048.265000", "180051.265000", "180053.765000", "180056.265000", "180058.765000", "180101.265000", "180104.265000", "180106.765000", "180109.265000", "180111.765000", "180114.265000", "180117.265000", "180119.765000", "180122.265000", "180124.765000", "180127.265000", "180130.265000", "180132.765000", "180135.265000", "180137.765000", "180140.265000", "180143.265000", "180145.765000", "180148.265000", "180150.765000", "180153.265000", "180156.265000", "180158.765000", "180201.265000", "180203.765000", "180206.265000", "180209.265000", "180211.765000", "180214.265000", "180216.765000", "180219.265000", "180222.265000", "180224.765000", "180227.265000", "180229.765000", "180232.265000", "180235.265000", "180237.765000", "180240.265000", "180242.765000", "180245.265000", "180248.265000", "180250.765000", "180253.265000", "180255.765000", "180258.265000", "180301.265000", "180303.765000", "180306.265000", "180308.765000", "180311.265000", "180314.265000", "180316.765000", "180319.265000", "180321.765000", "180324.265000", "180327.265000", "180329.765000", "180332.265000", "180334.765000", "180337.265000", "180340.265000", "180342.765000", "180345.265000", "180347.765000", "180350.265000", "180353.265000", "180355.765000", "180358.265000", "180400.765000", "180403.265000", "180406.265000", "180408.765000", "180411.265000", "180413.765000", "180416.265000", "180419.265000", "180421.765000", "180424.265000", "180426.765000", "180429.265000", "180432.265000", "180434.765000", "180437.265000", "180439.765000", "180442.265000", "180445.265000", "180447.765000", "180450.265000", "180452.765000", "180455.265000", "180458.265000", "180500.765000", "180503.265000", "180505.765000", "180508.265000", "180511.265000", "180513.765000", "180516.265000", "180518.765000", "180526.171000"],
      "InstanceNumber": [1, 2, 3, 4, 5, 6, 7, 8, 9, 10, 11, 12, 13, 14, 15, 16, 17, 18, 19, 20, 21, 22, 23, 24, 25, 26, 27, 28, 29, 30, 31, 32, 33, 34, 35, 36, 37, 38, 39, 40, 41, 42, 43, 44, 45, 46, 47, 48, 49, 50, 51, 52, 53, 54, 55, 56, 57, 58, 59, 60, 61, 62, 63, 64, 65, 66, 67, 68, 69, 70, 71, 72, 73, 74, 75, 76, 77, 78, 79, 80, 81, 82, 83, 84, 85, 86, 87, 88, 89, 90, 91, 92, 93, 94, 95, 96, 97, 98, 99, 100, 101, 102, 103, 104, 105, 106, 107, 108, 109, 110, 111, 112, 113, 114, 115, 116, 117, 118, 119, 120, 121, 122, 123, 124, 125, 126, 127, 128, 129, 130, 131, 132, 133, 134, 135, 136, 137, 138, 139, 140, 141, 142, 143, 144, 145, 146, 147, 148, 149, 150],
      "WindowCenter": [918.0, 916.0, 914.0, 914.0, 915.0, 915.0, 914.0, 914.0, 914.0, 915.0, 913.0, 914.0, 916.0, 915.0, 914.0, 915.0, 915.0, 914.0, 913.0, 913.0, 915.0, 913.0, 914.0, 915.0, 914.0, 915.0, 915.0, 912.0, 913.0, 913.0, 914.0, 913.0, 914.0, 913.0, 913.0, 914.0, 914.0, 915.0, 915.0, 914.0, 915.0, 914.0, 914.0, 913.0, 914.0, 914.0, 913.0, 914.0, 914.0, 915.0, 914.0, 914.0, 915.0, 915.0, 914.0, 914.0, 915.0, 914.0, 914.0, 915.0, 916.0, 915.0, 914.0, 914.0, 916.0, 915.0, 914.0, 914.0, 915.0, 913.0, 913.0, 916.0, 914.0, 913.0, 915.0, 916.0, 915.0, 914.0, 916.0, 916.0, 914.0, 914.0, 917.0, 917.0, 915.0, 913.0, 915.0, 915.0, 914.0, 915.0, 916.0, 915.0, 916.0, 916.0, 915.0, 914.0, 916.0, 915.0, 914.0, 914.0, 914.0, 914.0, 914.0, 915.0, 915.0, 915.0, 917.0, 916.0, 914.0, 915.0, 915.0, 917.0, 916.0, 915.0, 915.0, 915.0, 916.0, 916.0, 915.0, 915.0, 915.0, 915.0, 915.0, 915.0, 915.0, 916.0, 917.0, 915.0, 915.0, 915.0, 916.0, 915.0, 915.0, 915.0, 914.0, 914.0, 915.0, 916.0, 915.0, 915.0, 916.0, 914.0, 914.0, 914.0, 915.0, 916.0, 915.0, 914.0, 915.0, 916.0],
      "WindowWidth": [2104.0, 2097.0, 2093.0, 2093.0, 2095.0, 2094.0, 2094.0, 2092.0, 2093.0, 2096.0, 2089.0, 2092.0, 2099.0, 2095.0, 2093.0, 2094.0, 2096.0, 2093.0, 2090.0, 2090.0, 2095.0, 2089.0, 2093.0, 2095.0, 2092.0, 2097.0, 2095.0, 2088.0, 2089.0, 2091.0, 2091.0, 2091.0, 2092.0, 2089.0, 2089.0, 2092.0, 2095.0, 2096.0, 2095.0, 2094.0, 2096.0, 2094.0, 2092.0, 2091.0, 2093.0, 2093.0, 2090.0, 2094.0, 2093.0, 2096.0, 2095.0, 2094.0, 2098.0, 2098.0, 2092.0, 2094.0, 2097.0, 2094.0, 2092.0, 2096.0, 2100.0, 2096.0, 2093.0, 2094.0, 2099.0, 2097.0, 2091.0, 2093.0, 2097.0, 2091.0, 2092.0, 2099.0, 2093.0, 2091.0, 2096.0, 2099.0, 2097.0, 2094.0, 2100.0, 2098.0, 2094.0, 2096.0, 2103.0, 2102.0, 2096.0, 2092.0, 2098.0, 2097.0, 2094.0, 2097.0, 2098.0, 2096.0, 2101.0, 2099.0, 2098.0, 2095.0, 2100.0, 2098.0, 2093.0, 2093.0, 2095.0, 2092.0, 2095.0, 2096.0, 2097.0, 2098.0, 2103.0, 2101.0, 2096.0, 2099.0, 2098.0, 2102.0, 2100.0, 2098.0, 2096.0, 2098.0, 2101.0, 2099.0, 2097.0, 2097.0, 2096.0, 2097.0, 2099.0, 2099.0, 2097.0, 2101.0, 2105.0, 2099.0, 2098.0, 2099.0, 2101.0, 2099.0, 2097.0, 2097.0, 2095.0, 2092.0, 2098.0, 2101.0, 2098.0, 2098.0, 2100.0, 2095.0, 2095.0, 2093.0, 2096.0, 2098.0, 2096.0, 2093.0, 2098.0, 2100.0]
    },
    "slices": {}
  }
}