{
  "AcquisitionMatrixPE": 188,
  "AcquisitionNumber": 1,
  "AcquisitionTime": "19:26:12.060000",
  "BandwidthPerPixelPhaseEncode": 19.46,
  "BaseResolution": 188,
  "ConversionSoftware": "dcm2niix",
  "ConversionSoftwareVersion": "v1.0.20180606 GCC4.8.5",
  "DelayTime": 1.2,
  "DerivedVendorReportedEchoSpacing": 0.000820013,
  "DeviceSerialNumber": "18930",
  "DwellTime": 1.9e-06,
  "EchoTime": 0.02,
  "EffectiveEchoSpacing": 0.000273338,
  "FlipAngle": 80,
  "ImageComments": "Unaliased_MB2_PE2",
  "ImageOrientationPatientDICOM": [0.999406, 0.0222879, -0.0262715, -0.030293, 0.205286, -0.978233],
  "ImageType": [
    "ORIGINAL",
    "PRIMARY",
    "M",
    "MB",
    "ND",
    "MOSAIC"
],
  "InPlanePhaseEncodingDirectionDICOM": "COL",
  "InstitutionAddress": "Oxfordlaan_55_Maastricht_Limburg_NL_6229_EV",
  "InstitutionName": "Scannexus",
  "InstitutionalDepartmentName": "MRI_7T",
  "MRAcquisitionType": "2D",
  "MagneticFieldStrength": 6.98,
  "Manufacturer": "Siemens",
  "ManufacturersModelName": "Investigational_Device_7T",
  "Modality": "MR",
  "MultibandAccelerationFactor": 2,
  "ParallelReductionFactorInPlane": 3,
  "PartialFourier": 0.75,
  "PatientPosition": "HFS",
  "PercentPhaseFOV": 100,
  "PhaseEncodingDirection": "j",
  "PhaseEncodingSteps": 141,
  "PhaseResolution": 1,
  "PixelBandwidth": 1400,
  "ProcedureStepDescription": "FeDem_fMRI",
  "ProtocolName": "cmrr_mbep2d_bold_AP_run5",
  "PulseSequenceDetails": "%CustomerSeq%_cmrr_mbep2d_bold",
  "ReceiveCoilName": "32Ch_Head_7T",
  "ReconMatrixPE": 188,
  "RepetitionTime": 2.6,
  "SAR": 0.0940201,
  "ScanOptions": "PFP_FS",
  "ScanningSequence": "EP",
  "SequenceName": "epfid2d1_188",
  "SequenceVariant": "SK_SS",
  "SeriesDescription": "cmrr_mbep2d_bold_AP_run5",
  "SeriesNumber": 16,
  "ShimSetting": [70, -55, 521, 631, -120, 380, 345, 250],
  "SliceThickness": 1.1,
  "SliceTiming": [0, 0.7325, 0.0625, 0.795, 0.1225, 0.855, 0.1825, 0.9175, 0.245, 0.9775, 0.305, 1.04, 0.3675, 1.1, 0.4275, 1.16, 0.49, 1.2225, 0.55, 1.2825, 0.6125, 1.345, 0.6725, 0, 0.7325, 0.0625, 0.795, 0.1225, 0.855, 0.1825, 0.9175, 0.245, 0.9775, 0.305, 1.04, 0.3675, 1.1, 0.4275, 1.16, 0.49, 1.2225, 0.55, 1.2825, 0.6125, 1.345, 0.6725],
  "SoftwareVersions": "syngo_MR_B17",
  "SpacingBetweenSlices": 1.1,
  "StationName": "MRC18930",
  "TaskName": "auditory",
  "TotalReadoutTime": 0.0511141,
  "TxRefAmp": 290,
  "dcmmeta_affine": [
    [-1.0950942039489746, -0.03319339454174042, 0.01805056631565094, 104.30021667480469],
    [-0.024421878159046173, 0.22494132816791534, -1.0762922763824463, 26.037242889404297],
    [-0.028786813840270042, 1.0718936920166016, 0.22642335295677185, -107.83720397949219],
    [0.0, 0.0, 0.0, 1.0]
],
  "dcmmeta_reorient_transform": [
    [0.0, -1.0, 0.0, 187.0],
    [1.0, 0.0, 0.0, 0.0],
    [0.0, 0.0, 1.0, 0.0],
    [0.0, 0.0, 0.0, 1.0]
],
  "dcmmeta_shape": [188, 188, 46, 223],
  "dcmmeta_slice_dim": 2,
  "dcmmeta_version": 0.6,
  "global": {
    "const": {
      "AcquisitionMatrix": [188, 0, 0, 188],
      "AngioFlag": "N",
      "BitsAllocated": 16,
      "BitsStored": 12,
      "Columns": 1316,
      "EchoNumbers": 1,
      "EchoTime": 20.0,
      "EchoTrainLength": 1,
      "FlipAngle": 80.0,
      "HighBit": 11,
      "ImageOrientationPatient": [0.99940635312302, 0.02228792688867, -0.026271460796, -0.0302929993003, 0.20528624649842, -0.9782330454406],
      "ImagePositionPatient": [-697.00513272541, -208.7421152262, 713.39072804608],
      "ImageType": [
        "ORIGINAL",
        "PRIMARY",
        "M",
        "MB",
        "ND",
        "MOSAIC"
],
      "ImagedNucleus": "1H",
      "ImagingFrequency": 297.205558,
      "InPlanePhaseEncodingDirection": "COL",
      "LargestImagePixelValue": 4095,
      "MRAcquisitionType": "2D",
      "MagneticFieldStrength": 6.98,
      "Manufacturer": "SIEMENS",
      "ManufacturerModelName": "Investigational_Device_7T",
      "Modality": "MR",
      "NumberOfAverages": 1.0,
      "NumberOfPhaseEncodingSteps": 141,
      "PercentPhaseFieldOfView": 100.0,
      "PercentSampling": 100.0,
      "PerformedProcedureStepStartTime": "181118.203000",
      "PhotometricInterpretation": "MONOCHROME2",
      "PixelBandwidth": 1400.0,
      "PixelRepresentation": 0,
      "PixelSpacing": [1.0957447290421, 1.0957447290421],
      "ProtocolName": "cmrr_mbep2d_bold_AP_run5",
      "RepetitionTime": 2600.0,
      "Rows": 1316,
      "SAR": 0.09402006329303,
      "SamplesPerPixel": 1,
      "ScanOptions": [
        "PFP",
        "FS"
],
      "ScanningSequence": "EP",
      "SequenceName": "epfid2d1_188",
      "SequenceVariant": [
        "SK",
        "SS"
],
      "SeriesDescription": "cmrr_mbep2d_bold_AP_run5",
      "SeriesNumber": 16,
      "SeriesTime": "192637.781000",
      "SliceLocation": -45.961727267004,
      "SliceThickness": 1.1000000238419,
      "SmallestImagePixelValue": 0,
      "SoftwareVersions": "syngo MR B17",
      "SpacingBetweenSlices": 1.0999992899411,
      "SpecificCharacterSet": "ISO_IR 100",
      "StudyID": "1",
      "StudyTime": "181118.109000",
      "TransmitCoilName": "32Ch_Head_7T",
      "VariableFlipAngleFlag": "N",
      "WindowCenterWidthExplanation": "Algo1",
      "dBdt": 0.0},
    "slices": {}
  },
  "time": {
    "samples": {
      "AcquisitionNumber": [1, 2, 3, 4, 5, 6, 7, 8, 9, 10, 11, 12, 13, 14, 15, 16, 17, 18, 19, 20, 21, 22, 23, 24, 25, 26, 27, 28, 29, 30, 31, 32, 33, 34, 35, 36, 37, 38, 39, 40, 41, 42, 43, 44, 45, 46, 47, 48, 49, 50, 51, 52, 53, 54, 55, 56, 57, 58, 59, 60, 61, 62, 63, 64, 65, 66, 67, 68, 69, 70, 71, 72, 73, 74, 75, 76, 77, 78, 79, 80, 81, 82, 83, 84, 85, 86, 87, 88, 89, 90, 91, 92, 93, 94, 95, 96, 97, 98, 99, 100, 101, 102, 103, 104, 105, 106, 107, 108, 109, 110, 111, 112, 113, 114, 115, 116, 117, 118, 119, 120, 121, 122, 123, 124, 125, 126, 127, 128, 129, 130, 131, 132, 133, 134, 135, 136, 137, 138, 139, 140, 141, 142, 143, 144, 145, 146, 147, 148, 149, 150, 151, 152, 153, 154, 155, 156, 157, 158, 159, 160, 161, 162, 163, 164, 165, 166, 167, 168, 169, 170, 171, 172, 173, 174, 175, 176, 177, 178, 179, 180, 181, 182, 183, 184, 185, 186, 187, 188, 189, 190, 191, 192, 193, 194, 195, 196, 197, 198, 199, 200, 201, 202, 203, 204, 205, 206, 207, 208, 209, 210, 211, 212, 213, 214, 215, 216, 217, 218, 219, 220, 221, 222, 223],
      "AcquisitionTime": ["192612.060000", "192614.670000", "192617.280000", "192619.892500", "192622.502500", "192625.112500", "192627.722500", "192630.332500", "192632.945000", "192635.555000", "192638.165000", "192640.775000", "192643.385000", "192645.995000", "192648.607500", "192651.217500", "192653.827500", "192656.437500", "192659.047500", "192701.657500", "192704.270000", "192706.880000", "192709.490000", "192712.100000", "192714.710000", "192717.322500", "192719.932500", "192722.542500", "192725.152500", "192727.762500", "192730.372500", "192732.985000", "192735.595000", "192738.205000", "192740.815000", "192743.425000", "192746.035000", "192748.647500", "192751.257500", "192753.867500", "192756.477500", "192759.087500", "192801.700000", "192804.310000", "192806.920000", "192809.530000", "192812.140000", "192814.750000", "192817.362500", "192819.972500", "192822.582500", "192825.192500", "192827.802500", "192830.412500", "192833.025000", "192835.635000", "192838.245000", "192840.855000", "192843.465000", "192846.077500", "192848.687500", "192851.297500", "192853.907500", "192856.517500", "192859.127500", "192901.740000", "192904.350000", "192906.960000", "192909.570000", "192912.180000", "192914.790000", "192917.402500", "192920.012500", "192922.622500", "192925.232500", "192927.842500", "192930.455000", "192933.065000", "192935.675000", "192938.285000", "192940.895000", "192943.505000", "192946.117500", "192948.727500", "192951.337500", "192953.947500", "192956.557500", "192959.167500", "193001.780000", "193004.390000", "193007.000000", "193009.610000", "193012.220000", "193014.832500", "193017.442500", "193020.052500", "193022.662500", "193025.272500", "193027.882500", "193030.495000", "193033.105000", "193035.715000", "193038.325000", "193040.935000", "193043.545000", "193046.157500", "193048.767500", "193051.377500", "193053.987500", "193056.597500", "193059.210000", "193101.820000", "193104.430000", "193107.040000", "193109.650000", "193112.260000", "193114.872500", "193117.482500", "193120.092500", "193122.702500", "193125.312500", "193127.922500", "193130.535000", "193133.145000", "193135.755000", "193138.365000", "193140.975000", "193143.587500", "193146.197500", "193148.807500", "193151.417500", "193154.027500", "193156.637500", "193159.250000", "193201.860000", "193204.470000", "193207.080000", "193209.690000", "193212.300000", "193214.912500", "193217.522500", "193220.132500", "193222.742500", "193225.352500", "193227.965000", "193230.575000", "193233.185000", "193235.795000", "193238.405000", "193241.015000", "193243.627500", "193246.237500", "193248.847500", "193251.457500", "193254.067500", "193256.677500", "193259.290000", "193301.900000", "193304.510000", "193307.120000", "193309.730000", "193312.342500", "193314.952500", "193317.562500", "193320.172500", "193322.782500", "193325.392500", "193328.005000", "193330.615000", "193333.225000", "193335.835000", "193338.445000", "193341.055000", "193343.667500", "193346.277500", "193348.887500", "193351.497500", "193354.107500", "193356.720000", "193359.330000", "193401.940000", "193404.550000", "193407.160000", "193409.770000", "193412.382500", "193414.992500", "193417.602500", "193420.212500", "193422.822500", "193425.432500", "193428.045000", "193430.655000", "193433.265000", "193435.875000", "193438.485000", "193441.097500", "193443.707500", "193446.317500", "193448.927500", "193451.537500", "193454.147500", "193456.760000", "193459.370000", "193501.980000", "193504.590000", "193507.200000", "193509.812500", "193512.422500", "193515.032500", "193517.642500", "193520.252500", "193522.862500", "193525.475000", "193528.085000", "193530.695000", "193533.305000", "193535.915000", "193538.525000", "193541.137500", "193543.747500", "193546.357500", "193548.967500", "193551.577500"],
      "ContentTime": ["192637.781000", "192637.781000", "192637.796000", "192637.796000", "192637.796000", "192637.796000", "192637.796000", "192637.796000", "192637.796000", "192737.781000", "192737.781000", "192737.796000", "192737.796000", "192737.796000", "192737.796000", "192737.812000", "192737.812000", "192737.812000", "192737.812000", "192737.812000", "192737.812000", "192737.828000", "192737.828000", "192737.828000", "192737.828000", "192737.828000", "192737.828000", "192737.843000", "192737.843000", "192737.843000", "192737.843000", "192737.843000", "192837.781000", "192837.781000", "192837.781000", "192837.781000", "192837.781000", "192837.781000", "192837.796000", "192837.796000", "192837.796000", "192837.796000", "192837.796000", "192837.796000", "192837.796000", "192837.812000", "192837.812000", "192837.812000", "192837.812000", "192837.812000", "192837.812000", "192837.812000", "192837.828000", "192837.828000", "192837.828000", "192937.781000", "192937.781000", "192937.781000", "192937.781000", "192937.781000", "192937.781000", "192937.796000", "192937.796000", "192937.796000", "192937.796000", "192937.796000", "192937.796000", "192937.796000", "192937.796000", "192937.812000", "192937.812000", "192937.812000", "192937.812000", "192937.812000", "192937.828000", "192937.828000", "192937.828000", "192937.828000", "193037.781000", "193037.781000", "193037.781000", "193037.781000", "193037.781000", "193037.781000", "193037.796000", "193037.796000", "193037.796000", "193037.796000", "193037.796000", "193037.812000", "193037.812000", "193037.812000", "193037.812000", "193037.812000", "193037.812000", "193037.812000", "193037.828000", "193037.828000", "193037.828000", "193037.828000", "193037.828000", "193137.781000", "193137.781000", "193137.781000", "193137.781000", "193137.781000", "193137.781000", "193137.796000", "193137.796000", "193137.796000", "193137.796000", "193137.796000", "193137.796000", "193137.796000", "193137.812000", "193137.812000", "193137.812000", "193137.812000", "193137.828000", "193137.828000", "193137.828000", "193137.828000", "193137.828000", "193137.828000", "193237.781000", "193237.781000", "193237.781000", "193237.781000", "193237.781000", "193237.781000", "193237.796000", "193237.796000", "193237.796000", "193237.796000", "193237.796000", "193237.796000", "193237.796000", "193237.812000", "193237.812000", "193237.812000", "193237.812000", "193237.812000", "193237.812000", "193237.812000", "193237.828000", "193237.828000", "193237.828000", "193337.781000", "193337.781000", "193337.781000", "193337.781000", "193337.781000", "193337.781000", "193337.796000", "193337.796000", "193337.796000", "193337.796000", "193337.796000", "193337.796000", "193337.796000", "193337.812000", "193337.812000", "193337.812000", "193337.812000", "193337.812000", "193337.812000", "193337.812000", "193337.828000", "193337.828000", "193337.828000", "193437.781000", "193437.781000", "193437.781000", "193437.781000", "193437.781000", "193437.781000", "193437.796000", "193437.796000", "193437.796000", "193437.796000", "193437.796000", "193437.796000", "193437.796000", "193437.812000", "193437.812000", "193437.812000", "193437.812000", "193437.812000", "193437.812000", "193437.812000", "193437.828000", "193437.828000", "193437.828000", "193537.781000", "193537.781000", "193537.781000", "193537.781000", "193537.781000", "193537.796000", "193537.796000", "193537.796000", "193537.796000", "193537.796000", "193537.796000", "193537.796000", "193537.812000", "193537.812000", "193537.812000", "193537.812000", "193537.812000", "193537.812000", "193537.828000", "193537.828000", "193537.828000", "193537.828000", "193537.828000", "193558.812000", "193558.828000", "193558.828000", "193558.828000", "193558.828000", "193558.828000", "193558.843000"],
      "InstanceCreationTime": ["192637.781000", "192637.781000", "192637.796000", "192637.796000", "192637.796000", "192637.796000", "192637.796000", "192637.796000", "192637.796000", "192737.781000", "192737.781000", "192737.796000", "192737.796000", "192737.796000", "192737.796000", "192737.812000", "192737.812000", "192737.812000", "192737.812000", "192737.812000", "192737.812000", "192737.828000", "192737.828000", "192737.828000", "192737.828000", "192737.828000", "192737.828000", "192737.843000", "192737.843000", "192737.843000", "192737.843000", "192737.843000", "192837.781000", "192837.781000", "192837.781000", "192837.781000", "192837.781000", "192837.781000", "192837.796000", "192837.796000", "192837.796000", "192837.796000", "192837.796000", "192837.796000", "192837.796000", "192837.812000", "192837.812000", "192837.812000", "192837.812000", "192837.812000", "192837.812000", "192837.812000", "192837.828000", "192837.828000", "192837.828000", "192937.781000", "192937.781000", "192937.781000", "192937.781000", "192937.781000", "192937.781000", "192937.796000", "192937.796000", "192937.796000", "192937.796000", "192937.796000", "192937.796000", "192937.796000", "192937.796000", "192937.812000", "192937.812000", "192937.812000", "192937.812000", "192937.812000", "192937.828000", "192937.828000", "192937.828000", "192937.828000", "193037.781000", "193037.781000", "193037.781000", "193037.781000", "193037.781000", "193037.781000", "193037.796000", "193037.796000", "193037.796000", "193037.796000", "193037.796000", "193037.812000", "193037.812000", "193037.812000", "193037.812000", "193037.812000", "193037.812000", "193037.812000", "193037.828000", "193037.828000", "193037.828000", "193037.828000", "193037.828000", "193137.781000", "193137.781000", "193137.781000", "193137.781000", "193137.781000", "193137.781000", "193137.796000", "193137.796000", "193137.796000", "193137.796000", "193137.796000", "193137.796000", "193137.796000", "193137.812000", "193137.812000", "193137.812000", "193137.812000", "193137.828000", "193137.828000", "193137.828000", "193137.828000", "193137.828000", "193137.828000", "193237.781000", "193237.781000", "193237.781000", "193237.781000", "193237.781000", "193237.781000", "193237.796000", "193237.796000", "193237.796000", "193237.796000", "193237.796000", "193237.796000", "193237.796000", "193237.812000", "193237.812000", "193237.812000", "193237.812000", "193237.812000", "193237.812000", "193237.812000", "193237.828000", "193237.828000", "193237.828000", "193337.781000", "193337.781000", "193337.781000", "193337.781000", "193337.781000", "193337.781000", "193337.796000", "193337.796000", "193337.796000", "193337.796000", "193337.796000", "193337.796000", "193337.796000", "193337.812000", "193337.812000", "193337.812000", "193337.812000", "193337.812000", "193337.812000", "193337.812000", "193337.828000", "193337.828000", "193337.828000", "193437.781000", "193437.781000", "193437.781000", "193437.781000", "193437.781000", "193437.781000", "193437.796000", "193437.796000", "193437.796000", "193437.796000", "193437.796000", "193437.796000", "193437.796000", "193437.812000", "193437.812000", "193437.812000", "193437.812000", "193437.812000", "193437.812000", "193437.812000", "193437.828000", "193437.828000", "193437.828000", "193537.781000", "193537.781000", "193537.781000", "193537.781000", "193537.781000", "193537.796000", "193537.796000", "193537.796000", "193537.796000", "193537.796000", "193537.796000", "193537.796000", "193537.812000", "193537.812000", "193537.812000", "193537.812000", "193537.812000", "193537.812000", "193537.828000", "193537.828000", "193537.828000", "193537.828000", "193537.828000", "193558.812000", "193558.828000", "193558.828000", "193558.828000", "193558.828000", "193558.828000", "193558.843000"],
      "InstanceNumber": [1, 2, 3, 4, 5, 6, 7, 8, 9, 10, 11, 12, 13, 14, 15, 16, 17, 18, 19, 20, 21, 22, 23, 24, 25, 26, 27, 28, 29, 30, 31, 32, 33, 34, 35, 36, 37, 38, 39, 40, 41, 42, 43, 44, 45, 46, 47, 48, 49, 50, 51, 52, 53, 54, 55, 56, 57, 58, 59, 60, 61, 62, 63, 64, 65, 66, 67, 68, 69, 70, 71, 72, 73, 74, 75, 76, 77, 78, 79, 80, 81, 82, 83, 84, 85, 86, 87, 88, 89, 90, 91, 92, 93, 94, 95, 96, 97, 98, 99, 100, 101, 102, 103, 104, 105, 106, 107, 108, 109, 110, 111, 112, 113, 114, 115, 116, 117, 118, 119, 120, 121, 122, 123, 124, 125, 126, 127, 128, 129, 130, 131, 132, 133, 134, 135, 136, 137, 138, 139, 140, 141, 142, 143, 144, 145, 146, 147, 148, 149, 150, 151, 152, 153, 154, 155, 156, 157, 158, 159, 160, 161, 162, 163, 164, 165, 166, 167, 168, 169, 170, 171, 172, 173, 174, 175, 176, 177, 178, 179, 180, 181, 182, 183, 184, 185, 186, 187, 188, 189, 190, 191, 192, 193, 194, 195, 196, 197, 198, 199, 200, 201, 202, 203, 204, 205, 206, 207, 208, 209, 210, 211, 212, 213, 214, 215, 216, 217, 218, 219, 220, 221, 222, 223],
      "WindowCenter": [926.0, 925.0, 925.0, 925.0, 925.0, 925.0, 924.0, 925.0, 925.0, 923.0, 924.0, 923.0, 924.0, 927.0, 927.0, 927.0, 927.0, 926.0, 926.0, 924.0, 924.0, 925.0, 926.0, 925.0, 925.0, 925.0, 924.0, 925.0, 925.0, 924.0, 925.0, 925.0, 925.0, 924.0, 925.0, 926.0, 927.0, 925.0, 926.0, 926.0, 925.0, 925.0, 924.0, 924.0, 926.0, 926.0, 925.0, 926.0, 927.0, 926.0, 925.0, 926.0, 927.0, 926.0, 924.0, 924.0, 926.0, 926.0, 926.0, 926.0, 925.0, 925.0, 926.0, 925.0, 924.0, 925.0, 925.0, 925.0, 925.0, 927.0, 926.0, 924.0, 924.0, 925.0, 928.0, 926.0, 925.0, 925.0, 926.0, 926.0, 925.0, 925.0, 925.0, 926.0, 926.0, 926.0, 925.0, 926.0, 926.0, 926.0, 926.0, 926.0, 927.0, 927.0, 926.0, 925.0, 925.0, 927.0, 926.0, 924.0, 924.0, 923.0, 926.0, 927.0, 926.0, 925.0, 926.0, 926.0, 926.0, 926.0, 926.0, 926.0, 926.0, 926.0, 926.0, 926.0, 927.0, 927.0, 926.0, 925.0, 924.0, 925.0, 927.0, 926.0, 925.0, 925.0, 926.0, 926.0, 925.0, 925.0, 927.0, 926.0, 925.0, 926.0, 926.0, 925.0, 925.0, 926.0, 927.0, 926.0, 925.0, 924.0, 927.0, 928.0, 926.0, 926.0, 927.0, 926.0, 926.0, 927.0, 926.0, 925.0, 926.0, 926.0, 926.0, 925.0, 927.0, 927.0, 926.0, 925.0, 926.0, 928.0, 925.0, 924.0, 924.0, 925.0, 926.0, 927.0, 929.0, 926.0, 927.0, 926.0, 926.0, 926.0, 928.0, 925.0, 923.0, 926.0, 925.0, 924.0, 926.0, 926.0, 926.0, 927.0, 928.0, 927.0, 927.0, 928.0, 929.0, 926.0, 925.0, 925.0, 925.0, 925.0, 927.0, 927.0, 926.0, 926.0, 927.0, 927.0, 927.0, 927.0, 927.0, 927.0, 926.0, 927.0, 926.0, 926.0, 925.0, 925.0, 926.0, 925.0, 924.0, 925.0, 926.0, 926.0, 926.0, 926.0, 926.0, 927.0, 926.0, 928.0, 927.0],
      "WindowWidth": [2171.0, 2169.0, 2169.0, 2169.0, 2170.0, 2167.0, 2165.0, 2170.0, 2169.0, 2164.0, 2167.0, 2163.0, 2165.0, 2175.0, 2175.0, 2174.0, 2174.0, 2173.0, 2172.0, 2165.0, 2164.0, 2168.0, 2171.0, 2169.0, 2169.0, 2169.0, 2166.0, 2167.0, 2167.0, 2166.0, 2167.0, 2167.0, 2170.0, 2167.0, 2171.0, 2174.0, 2174.0, 2169.0, 2171.0, 2172.0, 2168.0, 2168.0, 2166.0, 2167.0, 2172.0, 2171.0, 2168.0, 2170.0, 2176.0, 2171.0, 2168.0, 2174.0, 2174.0, 2170.0, 2164.0, 2167.0, 2172.0, 2172.0, 2171.0, 2170.0, 2168.0, 2169.0, 2174.0, 2169.0, 2163.0, 2169.0, 2171.0, 2169.0, 2169.0, 2178.0, 2170.0, 2163.0, 2164.0, 2169.0, 2178.0, 2172.0, 2167.0, 2170.0, 2171.0, 2172.0, 2168.0, 2168.0, 2169.0, 2170.0, 2172.0, 2169.0, 2168.0, 2172.0, 2170.0, 2171.0, 2171.0, 2173.0, 2173.0, 2175.0, 2174.0, 2171.0, 2169.0, 2173.0, 2173.0, 2165.0, 2163.0, 2165.0, 2172.0, 2174.0, 2170.0, 2170.0, 2172.0, 2171.0, 2173.0, 2172.0, 2172.0, 2172.0, 2172.0, 2172.0, 2171.0, 2173.0, 2173.0, 2173.0, 2171.0, 2168.0, 2163.0, 2170.0, 2174.0, 2172.0, 2166.0, 2171.0, 2172.0, 2170.0, 2166.0, 2167.0, 2172.0, 2169.0, 2166.0, 2171.0, 2172.0, 2168.0, 2167.0, 2172.0, 2174.0, 2171.0, 2165.0, 2163.0, 2172.0, 2175.0, 2170.0, 2170.0, 2175.0, 2170.0, 2171.0, 2173.0, 2172.0, 2168.0, 2171.0, 2171.0, 2169.0, 2168.0, 2174.0, 2175.0, 2170.0, 2166.0, 2172.0, 2177.0, 2167.0, 2164.0, 2165.0, 2168.0, 2170.0, 2174.0, 2179.0, 2171.0, 2172.0, 2171.0, 2171.0, 2172.0, 2175.0, 2166.0, 2158.0, 2170.0, 2168.0, 2164.0, 2169.0, 2172.0, 2172.0, 2175.0, 2177.0, 2173.0, 2172.0, 2177.0, 2180.0, 2171.0, 2167.0, 2166.0, 2166.0, 2168.0, 2175.0, 2174.0, 2171.0, 2170.0, 2174.0, 2175.0, 2172.0, 2174.0, 2173.0, 2174.0, 2173.0, 2172.0, 2172.0, 2170.0, 2169.0, 2169.0, 2169.0, 2165.0, 2164.0, 2167.0, 2172.0, 2170.0, 2169.0, 2170.0, 2171.0, 2172.0, 2170.0, 2176.0, 2176.0]
    },
    "slices": {}
  }
}