{
  "AcquisitionMatrixPE": 188,
  "AcquisitionNumber": 1,
  "AcquisitionTime": "18:50:19.085000",
  "BandwidthPerPixelPhaseEncode": 19.46,
  "BaseResolution": 188,
  "ConversionSoftware": "dcm2niix",
  "ConversionSoftwareVersion": "v1.0.20180606 GCC4.8.5",
  "DelayTime": 1.2,
  "DerivedVendorReportedEchoSpacing": 0.000820013,
  "DeviceSerialNumber": "18930",
  "DwellTime": 1.9e-06,
  "EchoTime": 0.02,
  "EffectiveEchoSpacing": 0.000273338,
  "FlipAngle": 80,
  "ImageComments": "Unaliased_MB2_PE2",
  "ImageOrientationPatientDICOM": [0.999406, 0.0222879, -0.0262715, -0.030293, 0.205286, -0.978233],
  "ImageType": [
    "ORIGINAL",
    "PRIMARY",
    "M",
    "MB",
    "ND",
    "MOSAIC"
],
  "InPlanePhaseEncodingDirectionDICOM": "COL",
  "InstitutionAddress": "Oxfordlaan_55_Maastricht_Limburg_NL_6229_EV",
  "InstitutionName": "Scannexus",
  "InstitutionalDepartmentName": "MRI_7T",
  "MRAcquisitionType": "2D",
  "MagneticFieldStrength": 6.98,
  "Manufacturer": "Siemens",
  "ManufacturersModelName": "Investigational_Device_7T",
  "Modality": "MR",
  "MultibandAccelerationFactor": 2,
  "ParallelReductionFactorInPlane": 3,
  "PartialFourier": 0.75,
  "PatientPosition": "HFS",
  "PercentPhaseFOV": 100,
  "PhaseEncodingDirection": "j",
  "PhaseEncodingSteps": 141,
  "PhaseResolution": 1,
  "PixelBandwidth": 1400,
  "ProcedureStepDescription": "FeDem_fMRI",
  "ProtocolName": "cmrr_mbep2d_bold_AP_run2",
  "PulseSequenceDetails": "%CustomerSeq%_cmrr_mbep2d_bold",
  "ReceiveCoilName": "32Ch_Head_7T",
  "ReconMatrixPE": 188,
  "RepetitionTime": 2.6,
  "SAR": 0.095301,
  "ScanOptions": "PFP_FS",
  "ScanningSequence": "EP",
  "SequenceName": "epfid2d1_188",
  "SequenceVariant": "SK_SS",
  "SeriesDescription": "cmrr_mbep2d_bold_AP_run2",
  "SeriesNumber": 13,
  "ShimSetting": [70, -55, 521, 631, -120, 380, 345, 250],
  "SliceThickness": 1.1,
  "SliceTiming": [0, 0.7325, 0.06, 0.7925, 0.1225, 0.855, 0.1825, 0.915, 0.2425, 0.9775, 0.305, 1.0375, 0.365, 1.1, 0.4275, 1.16, 0.4875, 1.2225, 0.55, 1.2825, 0.61, 1.3425, 0.6725, 0, 0.7325, 0.06, 0.7925, 0.1225, 0.855, 0.1825, 0.915, 0.2425, 0.9775, 0.305, 1.0375, 0.365, 1.1, 0.4275, 1.16, 0.4875, 1.2225, 0.55, 1.2825, 0.61, 1.3425, 0.6725],
  "SoftwareVersions": "syngo_MR_B17",
  "SpacingBetweenSlices": 1.1,
  "StationName": "MRC18930",
  "TaskName": "auditory",
  "TotalReadoutTime": 0.0511141,
  "TxRefAmp": 290,
  "dcmmeta_affine": [
    [-1.0950942039489746, -0.03319339454174042, 0.01805056631565094, 104.30021667480469],
    [-0.024421878159046173, 0.22494132816791534, -1.0762922763824463, 26.037242889404297],
    [-0.028786813840270042, 1.0718936920166016, 0.22642335295677185, -107.83720397949219],
    [0.0, 0.0, 0.0, 1.0]
],
  "dcmmeta_reorient_transform": [
    [0.0, -1.0, 0.0, 187.0],
    [1.0, 0.0, 0.0, 0.0],
    [0.0, 0.0, 1.0, 0.0],
    [0.0, 0.0, 0.0, 1.0]
],
  "dcmmeta_shape": [188, 188, 46, 223],
  "dcmmeta_slice_dim": 2,
  "dcmmeta_version": 0.6,
  "global": {
    "const": {
      "AcquisitionMatrix": [188, 0, 0, 188],
      "AngioFlag": "N",
      "BitsAllocated": 16,
      "BitsStored": 12,
      "Columns": 1316,
      "EchoNumbers": 1,
      "EchoTime": 20.0,
      "EchoTrainLength": 1,
      "FlipAngle": 80.0,
      "HighBit": 11,
      "ImageOrientationPatient": [0.99940635312302, 0.02228792688867, -0.026271460796, -0.0302929993003, 0.20528624649842, -0.9782330454406],
      "ImagePositionPatient": [-697.00513272541, -208.7421152262, 713.39072804608],
      "ImageType": [
        "ORIGINAL",
        "PRIMARY",
        "M",
        "MB",
        "ND",
        "MOSAIC"
],
      "ImagedNucleus": "1H",
      "ImagingFrequency": 297.205546,
      "InPlanePhaseEncodingDirection": "COL",
      "LargestImagePixelValue": 4095,
      "MRAcquisitionType": "2D",
      "MagneticFieldStrength": 6.98,
      "Manufacturer": "SIEMENS",
      "ManufacturerModelName": "Investigational_Device_7T",
      "Modality": "MR",
      "NumberOfAverages": 1.0,
      "NumberOfPhaseEncodingSteps": 141,
      "PercentPhaseFieldOfView": 100.0,
      "PercentSampling": 100.0,
      "PerformedProcedureStepStartTime": "181118.203000",
      "PhotometricInterpretation": "MONOCHROME2",
      "PixelBandwidth": 1400.0,
      "PixelRepresentation": 0,
      "PixelSpacing": [1.0957447290421, 1.0957447290421],
      "ProtocolName": "cmrr_mbep2d_bold_AP_run2",
      "RepetitionTime": 2600.0,
      "Rows": 1316,
      "SAR": 0.0953010137862,
      "SamplesPerPixel": 1,
      "ScanOptions": [
        "PFP",
        "FS"
],
      "ScanningSequence": "EP",
      "SequenceName": "epfid2d1_188",
      "SequenceVariant": [
        "SK",
        "SS"
],
      "SeriesDescription": "cmrr_mbep2d_bold_AP_run2",
      "SeriesNumber": 13,
      "SeriesTime": "185117.781000",
      "SliceLocation": -45.961727267004,
      "SliceThickness": 1.1000000238419,
      "SmallestImagePixelValue": 0,
      "SoftwareVersions": "syngo MR B17",
      "SpacingBetweenSlices": 1.0999992899411,
      "SpecificCharacterSet": "ISO_IR 100",
      "StudyID": "1",
      "StudyTime": "181118.109000",
      "TransmitCoilName": "32Ch_Head_7T",
      "VariableFlipAngleFlag": "N",
      "WindowCenterWidthExplanation": "Algo1",
      "dBdt": 0.0},
    "slices": {}
  },
  "time": {
    "samples": {
      "AcquisitionNumber": [1, 2, 3, 4, 5, 6, 7, 8, 9, 10, 11, 12, 13, 14, 15, 16, 17, 18, 19, 20, 21, 22, 23, 24, 25, 26, 27, 28, 29, 30, 31, 32, 33, 34, 35, 36, 37, 38, 39, 40, 41, 42, 43, 44, 45, 46, 47, 48, 49, 50, 51, 52, 53, 54, 55, 56, 57, 58, 59, 60, 61, 62, 63, 64, 65, 66, 67, 68, 69, 70, 71, 72, 73, 74, 75, 76, 77, 78, 79, 80, 81, 82, 83, 84, 85, 86, 87, 88, 89, 90, 91, 92, 93, 94, 95, 96, 97, 98, 99, 100, 101, 102, 103, 104, 105, 106, 107, 108, 109, 110, 111, 112, 113, 114, 115, 116, 117, 118, 119, 120, 121, 122, 123, 124, 125, 126, 127, 128, 129, 130, 131, 132, 133, 134, 135, 136, 137, 138, 139, 140, 141, 142, 143, 144, 145, 146, 147, 148, 149, 150, 151, 152, 153, 154, 155, 156, 157, 158, 159, 160, 161, 162, 163, 164, 165, 166, 167, 168, 169, 170, 171, 172, 173, 174, 175, 176, 177, 178, 179, 180, 181, 182, 183, 184, 185, 186, 187, 188, 189, 190, 191, 192, 193, 194, 195, 196, 197, 198, 199, 200, 201, 202, 203, 204, 205, 206, 207, 208, 209, 210, 211, 212, 213, 214, 215, 216, 217, 218, 219, 220, 221, 222, 223],
      "AcquisitionTime": ["185019.085000", "185021.695000", "185024.305000", "185026.915000", "185029.525000", "185032.137500", "185034.747500", "185037.357500", "185039.967500", "185042.577500", "185045.187500", "185047.800000", "185050.410000", "185053.020000", "185055.630000", "185058.240000", "185100.852500", "185103.462500", "185106.072500", "185108.682500", "185111.292500", "185113.902500", "185116.515000", "185119.125000", "185121.735000", "185124.345000", "185126.955000", "185129.565000", "185132.177500", "185134.787500", "185137.397500", "185140.007500", "185142.617500", "185145.230000", "185147.840000", "185150.450000", "185153.060000", "185155.670000", "185158.280000", "185200.892500", "185203.502500", "185206.112500", "185208.722500", "185211.332500", "185213.942500", "185216.555000", "185219.165000", "185221.775000", "185224.385000", "185226.995000", "185229.607500", "185232.217500", "185234.827500", "185237.437500", "185240.047500", "185242.657500", "185245.270000", "185247.880000", "185250.490000", "185253.100000", "185255.710000", "185258.320000", "185300.932500", "185303.542500", "185306.152500", "185308.762500", "185311.372500", "185313.985000", "185316.595000", "185319.205000", "185321.815000", "185324.425000", "185327.035000", "185329.647500", "185332.257500", "185334.867500", "185337.477500", "185340.087500", "185342.697500", "185345.310000", "185347.920000", "185350.530000", "185353.140000", "185355.750000", "185358.362500", "185400.972500", "185403.582500", "185406.192500", "185408.802500", "185411.412500", "185414.025000", "185416.635000", "185419.245000", "185421.855000", "185424.465000", "185427.075000", "185429.687500", "185432.297500", "185434.907500", "185437.517500", "185440.127500", "185442.740000", "185445.350000", "185447.960000", "185450.570000", "185453.180000", "185455.790000", "185458.402500", "185501.012500", "185503.622500", "185506.232500", "185508.842500", "185511.452500", "185514.065000", "185516.675000", "185519.285000", "185521.895000", "185524.505000", "185527.117500", "185529.727500", "185532.337500", "185534.947500", "185537.557500", "185540.167500", "185542.780000", "185545.390000", "185548.000000", "185550.610000", "185553.220000", "185555.830000", "185558.442500", "185601.052500", "185603.662500", "185606.272500", "185608.882500", "185611.495000", "185614.105000", "185616.715000", "185619.325000", "185621.935000", "185624.545000", "185627.157500", "185629.767500", "185632.377500", "185634.987500", "185637.597500", "185640.210000", "185642.820000", "185645.430000", "185648.040000", "185650.650000", "185653.260000", "185655.872500", "185658.482500", "185701.092500", "185703.702500", "185706.312500", "185708.922500", "185711.535000", "185714.145000", "185716.755000", "185719.365000", "185721.975000", "185724.587500", "185727.197500", "185729.807500", "185732.417500", "185735.027500", "185737.637500", "185740.250000", "185742.860000", "185745.470000", "185748.080000", "185750.690000", "185753.300000", "185755.912500", "185758.522500", "185801.132500", "185803.742500", "185806.352500", "185808.965000", "185811.575000", "185814.185000", "185816.795000", "185819.405000", "185822.015000", "185824.627500", "185827.237500", "185829.847500", "185832.457500", "185835.067500", "185837.677500", "185840.290000", "185842.900000", "185845.510000", "185848.120000", "185850.730000", "185853.342500", "185855.952500", "185858.562500", "185901.172500", "185903.782500", "185906.392500", "185909.005000", "185911.615000", "185914.225000", "185916.835000", "185919.445000", "185922.055000", "185924.667500", "185927.277500", "185929.887500", "185932.497500", "185935.107500", "185937.720000", "185940.330000", "185942.940000", "185945.550000", "185948.160000", "185950.770000", "185953.382500", "185955.992500", "185958.602500"],
      "ContentTime": ["185117.781000", "185117.781000", "185117.796000", "185117.796000", "185117.796000", "185117.812000", "185117.812000", "185117.812000", "185117.812000", "185117.812000", "185117.812000", "185117.812000", "185117.812000", "185117.828000", "185117.828000", "185117.828000", "185117.828000", "185117.828000", "185117.828000", "185117.828000", "185117.843000", "185217.781000", "185217.781000", "185217.781000", "185217.781000", "185217.781000", "185217.781000", "185217.796000", "185217.796000", "185217.796000", "185217.796000", "185217.796000", "185217.796000", "185217.796000", "185217.812000", "185217.812000", "185217.812000", "185217.812000", "185217.812000", "185217.812000", "185217.812000", "185217.828000", "185217.828000", "185217.828000", "185217.828000", "185317.781000", "185317.781000", "185317.781000", "185317.781000", "185317.781000", "185317.796000", "185317.796000", "185317.796000", "185317.796000", "185317.796000", "185317.796000", "185317.812000", "185317.812000", "185317.812000", "185317.812000", "185317.812000", "185317.812000", "185317.812000", "185317.812000", "185317.828000", "185317.828000", "185317.828000", "185317.828000", "185417.781000", "185417.781000", "185417.781000", "185417.781000", "185417.781000", "185417.781000", "185417.781000", "185417.796000", "185417.796000", "185417.796000", "185417.796000", "185417.796000", "185417.812000", "185417.812000", "185417.812000", "185417.812000", "185417.812000", "185417.812000", "185417.812000", "185417.828000", "185417.828000", "185417.828000", "185417.828000", "185517.781000", "185517.781000", "185517.781000", "185517.781000", "185517.781000", "185517.781000", "185517.796000", "185517.796000", "185517.796000", "185517.796000", "185517.796000", "185517.796000", "185517.812000", "185517.812000", "185517.812000", "185517.812000", "185517.812000", "185517.812000", "185517.812000", "185517.828000", "185517.828000", "185517.828000", "185517.828000", "185617.781000", "185617.781000", "185617.781000", "185617.781000", "185617.781000", "185617.781000", "185617.796000", "185617.796000", "185617.796000", "185617.796000", "185617.812000", "185617.812000", "185617.812000", "185617.812000", "185617.812000", "185617.812000", "185617.812000", "185617.812000", "185617.828000", "185617.828000", "185617.828000", "185617.828000", "185617.828000", "185637.781000", "185637.781000", "185637.781000", "185637.781000", "185637.781000", "185637.781000", "185637.796000", "185637.796000", "185737.781000", "185737.781000", "185737.781000", "185737.781000", "185737.781000", "185737.781000", "185737.781000", "185737.796000", "185737.796000", "185737.796000", "185737.796000", "185737.796000", "185737.812000", "185737.812000", "185737.812000", "185737.812000", "185737.812000", "185737.812000", "185737.812000", "185737.828000", "185737.828000", "185737.828000", "185737.828000", "185837.781000", "185837.781000", "185837.781000", "185837.781000", "185837.781000", "185837.796000", "185837.796000", "185837.796000", "185837.796000", "185837.796000", "185837.796000", "185837.796000", "185837.812000", "185837.812000", "185837.812000", "185837.812000", "185837.812000", "185837.812000", "185837.828000", "185837.828000", "185837.828000", "185837.828000", "185837.828000", "185937.781000", "185937.781000", "185937.781000", "185937.781000", "185937.781000", "185937.781000", "185937.796000", "185937.796000", "185937.796000", "185937.796000", "185937.812000", "185937.812000", "185937.812000", "185937.812000", "185937.812000", "185937.812000", "185937.828000", "185937.828000", "185937.828000", "185937.828000", "185937.828000", "185937.828000", "185937.828000", "190005.515000", "190005.531000", "190005.531000", "190005.531000", "190005.531000", "190005.531000", "190005.531000", "190005.531000", "190005.546000"],
      "InstanceCreationTime": ["185117.781000", "185117.781000", "185117.796000", "185117.796000", "185117.796000", "185117.812000", "185117.812000", "185117.812000", "185117.812000", "185117.812000", "185117.812000", "185117.812000", "185117.812000", "185117.828000", "185117.828000", "185117.828000", "185117.828000", "185117.828000", "185117.828000", "185117.828000", "185117.843000", "185217.781000", "185217.781000", "185217.781000", "185217.781000", "185217.781000", "185217.781000", "185217.796000", "185217.796000", "185217.796000", "185217.796000", "185217.796000", "185217.796000", "185217.796000", "185217.812000", "185217.812000", "185217.812000", "185217.812000", "185217.812000", "185217.812000", "185217.812000", "185217.828000", "185217.828000", "185217.828000", "185217.828000", "185317.781000", "185317.781000", "185317.781000", "185317.781000", "185317.781000", "185317.796000", "185317.796000", "185317.796000", "185317.796000", "185317.796000", "185317.796000", "185317.812000", "185317.812000", "185317.812000", "185317.812000", "185317.812000", "185317.812000", "185317.812000", "185317.812000", "185317.828000", "185317.828000", "185317.828000", "185317.828000", "185417.781000", "185417.781000", "185417.781000", "185417.781000", "185417.781000", "185417.781000", "185417.781000", "185417.796000", "185417.796000", "185417.796000", "185417.796000", "185417.796000", "185417.812000", "185417.812000", "185417.812000", "185417.812000", "185417.812000", "185417.812000", "185417.812000", "185417.828000", "185417.828000", "185417.828000", "185417.828000", "185517.781000", "185517.781000", "185517.781000", "185517.781000", "185517.781000", "185517.781000", "185517.796000", "185517.796000", "185517.796000", "185517.796000", "185517.796000", "185517.796000", "185517.812000", "185517.812000", "185517.812000", "185517.812000", "185517.812000", "185517.812000", "185517.812000", "185517.828000", "185517.828000", "185517.828000", "185517.828000", "185617.781000", "185617.781000", "185617.781000", "185617.781000", "185617.781000", "185617.781000", "185617.796000", "185617.796000", "185617.796000", "185617.796000", "185617.812000", "185617.812000", "185617.812000", "185617.812000", "185617.812000", "185617.812000", "185617.812000", "185617.812000", "185617.828000", "185617.828000", "185617.828000", "185617.828000", "185617.828000", "185637.781000", "185637.781000", "185637.781000", "185637.781000", "185637.781000", "185637.781000", "185637.796000", "185637.796000", "185737.781000", "185737.781000", "185737.781000", "185737.781000", "185737.781000", "185737.781000", "185737.781000", "185737.796000", "185737.796000", "185737.796000", "185737.796000", "185737.796000", "185737.812000", "185737.812000", "185737.812000", "185737.812000", "185737.812000", "185737.812000", "185737.812000", "185737.828000", "185737.828000", "185737.828000", "185737.828000", "185837.781000", "185837.781000", "185837.781000", "185837.781000", "185837.781000", "185837.796000", "185837.796000", "185837.796000", "185837.796000", "185837.796000", "185837.796000", "185837.796000", "185837.812000", "185837.812000", "185837.812000", "185837.812000", "185837.812000", "185837.812000", "185837.828000", "185837.828000", "185837.828000", "185837.828000", "185837.828000", "185937.781000", "185937.781000", "185937.781000", "185937.781000", "185937.781000", "185937.781000", "185937.796000", "185937.796000", "185937.796000", "185937.796000", "185937.812000", "185937.812000", "185937.812000", "185937.812000", "185937.812000", "185937.812000", "185937.828000", "185937.828000", "185937.828000", "185937.828000", "185937.828000", "185937.828000", "185937.828000", "190005.515000", "190005.531000", "190005.531000", "190005.531000", "190005.531000", "190005.531000", "190005.531000", "190005.531000", "190005.546000"],
      "InstanceNumber": [1, 2, 3, 4, 5, 6, 7, 8, 9, 10, 11, 12, 13, 14, 15, 16, 17, 18, 19, 20, 21, 22, 23, 24, 25, 26, 27, 28, 29, 30, 31, 32, 33, 34, 35, 36, 37, 38, 39, 40, 41, 42, 43, 44, 45, 46, 47, 48, 49, 50, 51, 52, 53, 54, 55, 56, 57, 58, 59, 60, 61, 62, 63, 64, 65, 66, 67, 68, 69, 70, 71, 72, 73, 74, 75, 76, 77, 78, 79, 80, 81, 82, 83, 84, 85, 86, 87, 88, 89, 90, 91, 92, 93, 94, 95, 96, 97, 98, 99, 100, 101, 102, 103, 104, 105, 106, 107, 108, 109, 110, 111, 112, 113, 114, 115, 116, 117, 118, 119, 120, 121, 122, 123, 124, 125, 126, 127, 128, 129, 130, 131, 132, 133, 134, 135, 136, 137, 138, 139, 140, 141, 142, 143, 144, 145, 146, 147, 148, 149, 150, 151, 152, 153, 154, 155, 156, 157, 158, 159, 160, 161, 162, 163, 164, 165, 166, 167, 168, 169, 170, 171, 172, 173, 174, 175, 176, 177, 178, 179, 180, 181, 182, 183, 184, 185, 186, 187, 188, 189, 190, 191, 192, 193, 194, 195, 196, 197, 198, 199, 200, 201, 202, 203, 204, 205, 206, 207, 208, 209, 210, 211, 212, 213, 214, 215, 216, 217, 218, 219, 220, 221, 222, 223],
      "WindowCenter": [927.0, 926.0, 927.0, 926.0, 926.0, 926.0, 926.0, 926.0, 927.0, 927.0, 926.0, 927.0, 927.0, 928.0, 928.0, 926.0, 926.0, 927.0, 927.0, 926.0, 927.0, 927.0, 926.0, 927.0, 927.0, 926.0, 927.0, 927.0, 927.0, 927.0, 928.0, 926.0, 925.0, 926.0, 926.0, 926.0, 927.0, 927.0, 927.0, 927.0, 928.0, 928.0, 926.0, 926.0, 928.0, 927.0, 927.0, 927.0, 927.0, 926.0, 927.0, 928.0, 926.0, 927.0, 928.0, 927.0, 927.0, 928.0, 926.0, 926.0, 926.0, 926.0, 926.0, 928.0, 928.0, 927.0, 927.0, 926.0, 925.0, 925.0, 927.0, 928.0, 927.0, 927.0, 927.0, 927.0, 927.0, 927.0, 926.0, 927.0, 926.0, 926.0, 925.0, 926.0, 927.0, 927.0, 927.0, 927.0, 927.0, 926.0, 927.0, 928.0, 926.0, 926.0, 927.0, 928.0, 927.0, 928.0, 927.0, 926.0, 927.0, 927.0, 927.0, 927.0, 926.0, 927.0, 929.0, 927.0, 927.0, 927.0, 927.0, 926.0, 927.0, 927.0, 927.0, 927.0, 928.0, 927.0, 926.0, 928.0, 929.0, 927.0, 927.0, 927.0, 926.0, 926.0, 927.0, 928.0, 928.0, 927.0, 927.0, 928.0, 928.0, 927.0, 927.0, 927.0, 928.0, 927.0, 927.0, 928.0, 928.0, 927.0, 927.0, 928.0, 928.0, 927.0, 927.0, 927.0, 926.0, 926.0, 925.0, 927.0, 928.0, 928.0, 927.0, 927.0, 927.0, 928.0, 927.0, 927.0, 929.0, 927.0, 927.0, 926.0, 926.0, 927.0, 927.0, 926.0, 927.0, 928.0, 928.0, 927.0, 927.0, 926.0, 928.0, 928.0, 926.0, 926.0, 927.0, 927.0, 926.0, 927.0, 927.0, 927.0, 927.0, 927.0, 927.0, 928.0, 927.0, 927.0, 928.0, 926.0, 928.0, 927.0, 927.0, 927.0, 928.0, 927.0, 927.0, 929.0, 927.0, 926.0, 926.0, 927.0, 926.0, 925.0, 926.0, 927.0, 927.0, 925.0, 925.0, 927.0, 928.0, 927.0, 927.0, 927.0, 926.0, 926.0, 927.0, 927.0, 927.0, 929.0, 928.0],
      "WindowWidth": [2173.0, 2172.0, 2173.0, 2171.0, 2173.0, 2173.0, 2170.0, 2172.0, 2175.0, 2177.0, 2175.0, 2176.0, 2176.0, 2179.0, 2177.0, 2171.0, 2169.0, 2173.0, 2173.0, 2174.0, 2177.0, 2174.0, 2171.0, 2176.0, 2175.0, 2172.0, 2174.0, 2175.0, 2175.0, 2174.0, 2179.0, 2170.0, 2165.0, 2172.0, 2172.0, 2170.0, 2174.0, 2175.0, 2174.0, 2174.0, 2178.0, 2176.0, 2172.0, 2173.0, 2178.0, 2174.0, 2175.0, 2177.0, 2174.0, 2174.0, 2177.0, 2178.0, 2172.0, 2176.0, 2178.0, 2176.0, 2175.0, 2179.0, 2171.0, 2170.0, 2172.0, 2170.0, 2171.0, 2180.0, 2179.0, 2176.0, 2174.0, 2171.0, 2167.0, 2169.0, 2174.0, 2178.0, 2176.0, 2176.0, 2174.0, 2176.0, 2176.0, 2175.0, 2174.0, 2177.0, 2173.0, 2170.0, 2170.0, 2172.0, 2177.0, 2175.0, 2176.0, 2178.0, 2176.0, 2173.0, 2177.0, 2177.0, 2173.0, 2173.0, 2177.0, 2179.0, 2176.0, 2177.0, 2176.0, 2174.0, 2174.0, 2175.0, 2174.0, 2174.0, 2171.0, 2174.0, 2181.0, 2177.0, 2176.0, 2174.0, 2174.0, 2174.0, 2177.0, 2177.0, 2175.0, 2176.0, 2179.0, 2176.0, 2172.0, 2178.0, 2181.0, 2173.0, 2173.0, 2174.0, 2171.0, 2171.0, 2176.0, 2178.0, 2178.0, 2173.0, 2173.0, 2180.0, 2177.0, 2176.0, 2174.0, 2176.0, 2178.0, 2175.0, 2175.0, 2179.0, 2181.0, 2176.0, 2175.0, 2180.0, 2178.0, 2177.0, 2175.0, 2175.0, 2170.0, 2169.0, 2169.0, 2174.0, 2178.0, 2178.0, 2172.0, 2174.0, 2176.0, 2177.0, 2175.0, 2178.0, 2181.0, 2176.0, 2175.0, 2173.0, 2172.0, 2174.0, 2174.0, 2173.0, 2173.0, 2178.0, 2179.0, 2177.0, 2173.0, 2173.0, 2181.0, 2180.0, 2171.0, 2171.0, 2177.0, 2174.0, 2173.0, 2176.0, 2175.0, 2174.0, 2177.0, 2176.0, 2175.0, 2180.0, 2175.0, 2173.0, 2177.0, 2175.0, 2180.0, 2176.0, 2175.0, 2177.0, 2178.0, 2175.0, 2176.0, 2181.0, 2175.0, 2173.0, 2173.0, 2176.0, 2172.0, 2170.0, 2171.0, 2177.0, 2174.0, 2168.0, 2169.0, 2177.0, 2177.0, 2174.0, 2176.0, 2176.0, 2173.0, 2172.0, 2176.0, 2175.0, 2173.0, 2183.0, 2178.0]
    },
    "slices": {}
  }
}