{
  "AcquisitionMatrixPE": 188,
  "AcquisitionNumber": 1,
  "AcquisitionTime": "19:59:48.330000",
  "BandwidthPerPixelPhaseEncode": 19.46,
  "BaseResolution": 188,
  "ConversionSoftware": "dcm2niix",
  "ConversionSoftwareVersion": "v1.0.20180606 GCC4.8.5",
  "DelayTime": 1.2,
  "DerivedVendorReportedEchoSpacing": 0.000820013,
  "DeviceSerialNumber": "18930",
  "DwellTime": 1.9e-06,
  "EchoTime": 0.02,
  "EffectiveEchoSpacing": 0.000273338,
  "FlipAngle": 80,
  "ImageComments": "Unaliased_MB2_PE2",
  "ImageOrientationPatientDICOM": [0.999406, 0.0222879, -0.0262715, -0.030293, 0.205286, -0.978233],
  "ImageType": [
    "ORIGINAL",
    "PRIMARY",
    "M",
    "MB",
    "ND",
    "MOSAIC"
],
  "InPlanePhaseEncodingDirectionDICOM": "COL",
  "InstitutionAddress": "Oxfordlaan_55_Maastricht_Limburg_NL_6229_EV",
  "InstitutionName": "Scannexus",
  "InstitutionalDepartmentName": "MRI_7T",
  "MRAcquisitionType": "2D",
  "MagneticFieldStrength": 6.98,
  "Manufacturer": "Siemens",
  "ManufacturersModelName": "Investigational_Device_7T",
  "Modality": "MR",
  "MultibandAccelerationFactor": 2,
  "ParallelReductionFactorInPlane": 3,
  "PartialFourier": 0.75,
  "PatientPosition": "HFS",
  "PercentPhaseFOV": 100,
  "PhaseEncodingDirection": "j",
  "PhaseEncodingSteps": 141,
  "PhaseResolution": 1,
  "PixelBandwidth": 1400,
  "ProcedureStepDescription": "FeDem_fMRI",
  "ProtocolName": "cmrr_mbep2d_bold_AP_run8",
  "PulseSequenceDetails": "%CustomerSeq%_cmrr_mbep2d_bold",
  "ReceiveCoilName": "32Ch_Head_7T",
  "ReconMatrixPE": 188,
  "RepetitionTime": 2.6,
  "SAR": 0.0943038,
  "ScanOptions": "PFP_FS",
  "ScanningSequence": "EP",
  "SequenceName": "epfid2d1_188",
  "SequenceVariant": "SK_SS",
  "SeriesDescription": "cmrr_mbep2d_bold_AP_run8",
  "SeriesNumber": 19,
  "ShimSetting": [70, -55, 521, 631, -120, 380, 345, 250],
  "SliceThickness": 1.1,
  "SliceTiming": [0, 0.7325, 0.0625, 0.795, 0.1225, 0.855, 0.1825, 0.9175, 0.245, 0.9775, 0.305, 1.04, 0.3675, 1.1, 0.4275, 1.1625, 0.49, 1.2225, 0.55, 1.2825, 0.6125, 1.345, 0.6725, 0, 0.7325, 0.0625, 0.795, 0.1225, 0.855, 0.1825, 0.9175, 0.245, 0.9775, 0.305, 1.04, 0.3675, 1.1, 0.4275, 1.1625, 0.49, 1.2225, 0.55, 1.2825, 0.6125, 1.345, 0.6725],
  "SoftwareVersions": "syngo_MR_B17",
  "SpacingBetweenSlices": 1.1,
  "StationName": "MRC18930",
  "TaskName": "auditory",
  "TotalReadoutTime": 0.0511141,
  "TxRefAmp": 290,
  "dcmmeta_affine": [
    [-1.0950942039489746, -0.03319339454174042, 0.01805056631565094, 104.30021667480469],
    [-0.024421878159046173, 0.22494132816791534, -1.0762922763824463, 26.037242889404297],
    [-0.028786813840270042, 1.0718936920166016, 0.22642335295677185, -107.83720397949219],
    [0.0, 0.0, 0.0, 1.0]
],
  "dcmmeta_reorient_transform": [
    [0.0, -1.0, 0.0, 187.0],
    [1.0, 0.0, 0.0, 0.0],
    [0.0, 0.0, 1.0, 0.0],
    [0.0, 0.0, 0.0, 1.0]
],
  "dcmmeta_shape": [188, 188, 46, 223],
  "dcmmeta_slice_dim": 2,
  "dcmmeta_version": 0.6,
  "global": {
    "const": {
      "AcquisitionMatrix": [188, 0, 0, 188],
      "AngioFlag": "N",
      "BitsAllocated": 16,
      "BitsStored": 12,
      "Columns": 1316,
      "EchoNumbers": 1,
      "EchoTime": 20.0,
      "EchoTrainLength": 1,
      "FlipAngle": 80.0,
      "HighBit": 11,
      "ImageOrientationPatient": [0.99940635312302, 0.02228792688867, -0.026271460796, -0.0302929993003, 0.20528624649842, -0.9782330454406],
      "ImagePositionPatient": [-697.00513272541, -208.7421152262, 713.39072804608],
      "ImageType": [
        "ORIGINAL",
        "PRIMARY",
        "M",
        "MB",
        "ND",
        "MOSAIC"
],
      "ImagedNucleus": "1H",
      "ImagingFrequency": 297.205538,
      "InPlanePhaseEncodingDirection": "COL",
      "LargestImagePixelValue": 4095,
      "MRAcquisitionType": "2D",
      "MagneticFieldStrength": 6.98,
      "Manufacturer": "SIEMENS",
      "ManufacturerModelName": "Investigational_Device_7T",
      "Modality": "MR",
      "NumberOfAverages": 1.0,
      "NumberOfPhaseEncodingSteps": 141,
      "PercentPhaseFieldOfView": 100.0,
      "PercentSampling": 100.0,
      "PerformedProcedureStepStartTime": "181118.203000",
      "PhotometricInterpretation": "MONOCHROME2",
      "PixelBandwidth": 1400.0,
      "PixelRepresentation": 0,
      "PixelSpacing": [1.0957447290421, 1.0957447290421],
      "ProtocolName": "cmrr_mbep2d_bold_AP_run8",
      "RepetitionTime": 2600.0,
      "Rows": 1316,
      "SAR": 0.09430379018302,
      "SamplesPerPixel": 1,
      "ScanOptions": [
        "PFP",
        "FS"
],
      "ScanningSequence": "EP",
      "SequenceName": "epfid2d1_188",
      "SequenceVariant": [
        "SK",
        "SS"
],
      "SeriesDescription": "cmrr_mbep2d_bold_AP_run8",
      "SeriesNumber": 19,
      "SeriesTime": "200057.781000",
      "SliceLocation": -45.961727267004,
      "SliceThickness": 1.1000000238419,
      "SmallestImagePixelValue": 0,
      "SoftwareVersions": "syngo MR B17",
      "SpacingBetweenSlices": 1.0999992899411,
      "SpecificCharacterSet": "ISO_IR 100",
      "StudyID": "1",
      "StudyTime": "181118.109000",
      "TransmitCoilName": "32Ch_Head_7T",
      "VariableFlipAngleFlag": "N",
      "WindowCenterWidthExplanation": "Algo1",
      "dBdt": 0.0},
    "slices": {}
  },
  "time": {
    "samples": {
      "AcquisitionNumber": [1, 2, 3, 4, 5, 6, 7, 8, 9, 10, 11, 12, 13, 14, 15, 16, 17, 18, 19, 20, 21, 22, 23, 24, 25, 26, 27, 28, 29, 30, 31, 32, 33, 34, 35, 36, 37, 38, 39, 40, 41, 42, 43, 44, 45, 46, 47, 48, 49, 50, 51, 52, 53, 54, 55, 56, 57, 58, 59, 60, 61, 62, 63, 64, 65, 66, 67, 68, 69, 70, 71, 72, 73, 74, 75, 76, 77, 78, 79, 80, 81, 82, 83, 84, 85, 86, 87, 88, 89, 90, 91, 92, 93, 94, 95, 96, 97, 98, 99, 100, 101, 102, 103, 104, 105, 106, 107, 108, 109, 110, 111, 112, 113, 114, 115, 116, 117, 118, 119, 120, 121, 122, 123, 124, 125, 126, 127, 128, 129, 130, 131, 132, 133, 134, 135, 136, 137, 138, 139, 140, 141, 142, 143, 144, 145, 146, 147, 148, 149, 150, 151, 152, 153, 154, 155, 156, 157, 158, 159, 160, 161, 162, 163, 164, 165, 166, 167, 168, 169, 170, 171, 172, 173, 174, 175, 176, 177, 178, 179, 180, 181, 182, 183, 184, 185, 186, 187, 188, 189, 190, 191, 192, 193, 194, 195, 196, 197, 198, 199, 200, 201, 202, 203, 204, 205, 206, 207, 208, 209, 210, 211, 212, 213, 214, 215, 216, 217, 218, 219, 220, 221, 222, 223],
      "AcquisitionTime": ["195948.330000", "195950.940000", "195953.550000", "195956.162500", "195958.772500", "200001.382500", "200003.992500", "200006.602500", "200009.215000", "200011.825000", "200014.435000", "200017.045000", "200019.655000", "200022.265000", "200024.877500", "200027.487500", "200030.097500", "200032.707500", "200035.317500", "200037.927500", "200040.540000", "200043.150000", "200045.760000", "200048.370000", "200050.980000", "200053.592500", "200056.202500", "200058.812500", "200101.422500", "200104.032500", "200106.642500", "200109.255000", "200111.865000", "200114.475000", "200117.085000", "200119.695000", "200122.305000", "200124.917500", "200127.527500", "200130.137500", "200132.747500", "200135.357500", "200137.970000", "200140.580000", "200143.190000", "200145.800000", "200148.410000", "200151.020000", "200153.632500", "200156.242500", "200158.852500", "200201.462500", "200204.072500", "200206.682500", "200209.295000", "200211.905000", "200214.515000", "200217.125000", "200219.735000", "200222.347500", "200224.957500", "200227.567500", "200230.177500", "200232.787500", "200235.397500", "200238.010000", "200240.620000", "200243.230000", "200245.840000", "200248.450000", "200251.060000", "200253.672500", "200256.282500", "200258.892500", "200301.502500", "200304.112500", "200306.725000", "200309.335000", "200311.945000", "200314.555000", "200317.165000", "200319.775000", "200322.387500", "200324.997500", "200327.607500", "200330.217500", "200332.827500", "200335.437500", "200338.050000", "200340.660000", "200343.270000", "200345.880000", "200348.490000", "200351.102500", "200353.712500", "200356.322500", "200358.932500", "200401.542500", "200404.152500", "200406.765000", "200409.375000", "200411.985000", "200414.595000", "200417.205000", "200419.815000", "200422.427500", "200425.037500", "200427.647500", "200430.257500", "200432.867500", "200435.480000", "200438.090000", "200440.700000", "200443.310000", "200445.920000", "200448.530000", "200451.142500", "200453.752500", "200456.362500", "200458.972500", "200501.582500", "200504.192500", "200506.805000", "200509.415000", "200512.025000", "200514.635000", "200517.245000", "200519.857500", "200522.467500", "200525.077500", "200527.687500", "200530.297500", "200532.907500", "200535.520000", "200538.130000", "200540.740000", "200543.350000", "200545.960000", "200548.572500", "200551.182500", "200553.792500", "200556.402500", "200559.012500", "200601.622500", "200604.235000", "200606.845000", "200609.455000", "200612.065000", "200614.675000", "200617.285000", "200619.897500", "200622.507500", "200625.117500", "200627.727500", "200630.337500", "200632.950000", "200635.560000", "200638.170000", "200640.780000", "200643.390000", "200646.000000", "200648.612500", "200651.222500", "200653.832500", "200656.442500", "200659.052500", "200701.662500", "200704.275000", "200706.885000", "200709.495000", "200712.105000", "200714.715000", "200717.327500", "200719.937500", "200722.547500", "200725.157500", "200727.767500", "200730.377500", "200732.990000", "200735.600000", "200738.210000", "200740.820000", "200743.430000", "200746.040000", "200748.652500", "200751.262500", "200753.872500", "200756.482500", "200759.092500", "200801.705000", "200804.315000", "200806.925000", "200809.535000", "200812.145000", "200814.755000", "200817.367500", "200819.977500", "200822.587500", "200825.197500", "200827.807500", "200830.417500", "200833.030000", "200835.640000", "200838.250000", "200840.860000", "200843.470000", "200846.082500", "200848.692500", "200851.302500", "200853.912500", "200856.522500", "200859.132500", "200901.745000", "200904.355000", "200906.965000", "200909.575000", "200912.185000", "200914.795000", "200917.407500", "200920.017500", "200922.627500", "200925.237500", "200927.847500"],
      "ContentTime": ["200057.781000", "200057.781000", "200057.781000", "200057.796000", "200057.796000", "200057.796000", "200057.812000", "200057.812000", "200057.812000", "200057.812000", "200057.812000", "200057.812000", "200057.812000", "200057.812000", "200057.828000", "200057.828000", "200057.828000", "200057.828000", "200057.828000", "200057.843000", "200057.843000", "200057.843000", "200057.843000", "200057.843000", "200057.843000", "200057.843000", "200157.781000", "200157.781000", "200157.781000", "200157.781000", "200157.781000", "200157.781000", "200157.781000", "200157.796000", "200157.828000", "200157.828000", "200157.828000", "200157.828000", "200157.828000", "200157.828000", "200157.828000", "200157.828000", "200157.843000", "200157.843000", "200157.843000", "200157.843000", "200157.843000", "200157.843000", "200157.843000", "200257.781000", "200257.781000", "200257.781000", "200257.781000", "200257.781000", "200257.781000", "200257.796000", "200257.796000", "200257.796000", "200257.796000", "200257.796000", "200257.796000", "200257.812000", "200257.812000", "200257.812000", "200257.812000", "200257.812000", "200257.812000", "200257.812000", "200257.828000", "200257.828000", "200257.828000", "200257.828000", "200357.781000", "200357.781000", "200357.781000", "200357.781000", "200357.781000", "200357.781000", "200357.796000", "200357.796000", "200357.796000", "200357.796000", "200357.796000", "200357.812000", "200357.812000", "200357.812000", "200357.828000", "200357.828000", "200357.828000", "200357.828000", "200357.828000", "200357.828000", "200357.828000", "200357.828000", "200357.843000", "200457.781000", "200457.781000", "200457.781000", "200457.781000", "200457.781000", "200457.781000", "200457.796000", "200457.796000", "200457.796000", "200457.796000", "200457.796000", "200457.812000", "200457.812000", "200457.812000", "200457.812000", "200457.812000", "200457.812000", "200457.812000", "200457.828000", "200457.828000", "200457.828000", "200457.828000", "200457.828000", "200557.781000", "200557.781000", "200557.781000", "200557.781000", "200557.796000", "200557.796000", "200557.796000", "200557.796000", "200557.796000", "200557.796000", "200557.796000", "200557.812000", "200557.812000", "200557.812000", "200557.812000", "200557.812000", "200557.812000", "200557.828000", "200557.828000", "200557.828000", "200557.843000", "200557.843000", "200557.843000", "200637.781000", "200637.781000", "200637.781000", "200637.781000", "200637.781000", "200637.781000", "200637.781000", "200637.796000", "200637.796000", "200637.796000", "200637.796000", "200637.796000", "200637.796000", "200637.796000", "200637.812000", "200737.781000", "200737.781000", "200737.781000", "200737.781000", "200737.796000", "200737.796000", "200737.796000", "200737.796000", "200737.796000", "200737.796000", "200737.796000", "200737.812000", "200737.812000", "200737.812000", "200737.812000", "200737.812000", "200737.812000", "200737.812000", "200737.828000", "200737.828000", "200737.828000", "200737.828000", "200737.828000", "200837.781000", "200837.781000", "200837.781000", "200837.781000", "200837.781000", "200837.781000", "200837.796000", "200837.796000", "200837.796000", "200837.796000", "200837.812000", "200837.812000", "200837.812000", "200837.812000", "200837.812000", "200837.812000", "200837.812000", "200837.828000", "200837.828000", "200837.828000", "200837.828000", "200837.828000", "200837.828000", "200934.890000", "200934.890000", "200934.890000", "200934.906000", "200934.906000", "200934.906000", "200934.906000", "200934.906000", "200934.906000", "200934.906000", "200934.921000", "200934.921000", "200934.921000", "200934.921000", "200934.921000", "200934.921000", "200934.921000", "200934.937000", "200934.937000", "200934.937000", "200934.937000"],
      "InstanceCreationTime": ["200057.781000", "200057.781000", "200057.781000", "200057.796000", "200057.796000", "200057.796000", "200057.812000", "200057.812000", "200057.812000", "200057.812000", "200057.812000", "200057.812000", "200057.812000", "200057.812000", "200057.828000", "200057.828000", "200057.828000", "200057.828000", "200057.828000", "200057.843000", "200057.843000", "200057.843000", "200057.843000", "200057.843000", "200057.843000", "200057.843000", "200157.781000", "200157.781000", "200157.781000", "200157.781000", "200157.781000", "200157.781000", "200157.781000", "200157.796000", "200157.828000", "200157.828000", "200157.828000", "200157.828000", "200157.828000", "200157.828000", "200157.828000", "200157.828000", "200157.843000", "200157.843000", "200157.843000", "200157.843000", "200157.843000", "200157.843000", "200157.843000", "200257.781000", "200257.781000", "200257.781000", "200257.781000", "200257.781000", "200257.781000", "200257.796000", "200257.796000", "200257.796000", "200257.796000", "200257.796000", "200257.796000", "200257.812000", "200257.812000", "200257.812000", "200257.812000", "200257.812000", "200257.812000", "200257.812000", "200257.828000", "200257.828000", "200257.828000", "200257.828000", "200357.781000", "200357.781000", "200357.781000", "200357.781000", "200357.781000", "200357.781000", "200357.796000", "200357.796000", "200357.796000", "200357.796000", "200357.796000", "200357.812000", "200357.812000", "200357.812000", "200357.828000", "200357.828000", "200357.828000", "200357.828000", "200357.828000", "200357.828000", "200357.828000", "200357.828000", "200357.843000", "200457.781000", "200457.781000", "200457.781000", "200457.781000", "200457.781000", "200457.781000", "200457.796000", "200457.796000", "200457.796000", "200457.796000", "200457.796000", "200457.812000", "200457.812000", "200457.812000", "200457.812000", "200457.812000", "200457.812000", "200457.812000", "200457.828000", "200457.828000", "200457.828000", "200457.828000", "200457.828000", "200557.781000", "200557.781000", "200557.781000", "200557.781000", "200557.796000", "200557.796000", "200557.796000", "200557.796000", "200557.796000", "200557.796000", "200557.796000", "200557.812000", "200557.812000", "200557.812000", "200557.812000", "200557.812000", "200557.812000", "200557.828000", "200557.828000", "200557.828000", "200557.843000", "200557.843000", "200557.843000", "200637.781000", "200637.781000", "200637.781000", "200637.781000", "200637.781000", "200637.781000", "200637.781000", "200637.796000", "200637.796000", "200637.796000", "200637.796000", "200637.796000", "200637.796000", "200637.796000", "200637.812000", "200737.781000", "200737.781000", "200737.781000", "200737.781000", "200737.796000", "200737.796000", "200737.796000", "200737.796000", "200737.796000", "200737.796000", "200737.796000", "200737.812000", "200737.812000", "200737.812000", "200737.812000", "200737.812000", "200737.812000", "200737.812000", "200737.828000", "200737.828000", "200737.828000", "200737.828000", "200737.828000", "200837.781000", "200837.781000", "200837.781000", "200837.781000", "200837.781000", "200837.781000", "200837.796000", "200837.796000", "200837.796000", "200837.796000", "200837.812000", "200837.812000", "200837.812000", "200837.812000", "200837.812000", "200837.812000", "200837.812000", "200837.828000", "200837.828000", "200837.828000", "200837.828000", "200837.828000", "200837.828000", "200934.890000", "200934.890000", "200934.890000", "200934.906000", "200934.906000", "200934.906000", "200934.906000", "200934.906000", "200934.906000", "200934.906000", "200934.921000", "200934.921000", "200934.921000", "200934.921000", "200934.921000", "200934.921000", "200934.921000", "200934.937000", "200934.937000", "200934.937000", "200934.937000"],
      "InstanceNumber": [1, 2, 3, 4, 5, 6, 7, 8, 9, 10, 11, 12, 13, 14, 15, 16, 17, 18, 19, 20, 21, 22, 23, 24, 25, 26, 27, 28, 29, 30, 31, 32, 33, 34, 35, 36, 37, 38, 39, 40, 41, 42, 43, 44, 45, 46, 47, 48, 49, 50, 51, 52, 53, 54, 55, 56, 57, 58, 59, 60, 61, 62, 63, 64, 65, 66, 67, 68, 69, 70, 71, 72, 73, 74, 75, 76, 77, 78, 79, 80, 81, 82, 83, 84, 85, 86, 87, 88, 89, 90, 91, 92, 93, 94, 95, 96, 97, 98, 99, 100, 101, 102, 103, 104, 105, 106, 107, 108, 109, 110, 111, 112, 113, 114, 115, 116, 117, 118, 119, 120, 121, 122, 123, 124, 125, 126, 127, 128, 129, 130, 131, 132, 133, 134, 135, 136, 137, 138, 139, 140, 141, 142, 143, 144, 145, 146, 147, 148, 149, 150, 151, 152, 153, 154, 155, 156, 157, 158, 159, 160, 161, 162, 163, 164, 165, 166, 167, 168, 169, 170, 171, 172, 173, 174, 175, 176, 177, 178, 179, 180, 181, 182, 183, 184, 185, 186, 187, 188, 189, 190, 191, 192, 193, 194, 195, 196, 197, 198, 199, 200, 201, 202, 203, 204, 205, 206, 207, 208, 209, 210, 211, 212, 213, 214, 215, 216, 217, 218, 219, 220, 221, 222, 223],
      "WindowCenter": [951.0, 939.0, 943.0, 949.0, 940.0, 944.0, 952.0, 949.0, 928.0, 930.0, 931.0, 935.0, 933.0, 934.0, 933.0, 928.0, 931.0, 928.0, 928.0, 930.0, 930.0, 928.0, 933.0, 929.0, 938.0, 938.0, 931.0, 932.0, 929.0, 928.0, 930.0, 929.0, 926.0, 929.0, 929.0, 929.0, 927.0, 927.0, 928.0, 928.0, 927.0, 928.0, 928.0, 928.0, 925.0, 925.0, 926.0, 927.0, 927.0, 927.0, 927.0, 927.0, 926.0, 925.0, 925.0, 926.0, 925.0, 924.0, 927.0, 927.0, 925.0, 924.0, 925.0, 926.0, 926.0, 927.0, 927.0, 926.0, 926.0, 927.0, 927.0, 927.0, 927.0, 928.0, 928.0, 925.0, 925.0, 926.0, 929.0, 928.0, 926.0, 926.0, 927.0, 928.0, 929.0, 927.0, 927.0, 927.0, 927.0, 927.0, 928.0, 927.0, 927.0, 928.0, 928.0, 927.0, 927.0, 927.0, 927.0, 926.0, 926.0, 926.0, 928.0, 928.0, 927.0, 927.0, 927.0, 927.0, 927.0, 927.0, 926.0, 927.0, 927.0, 926.0, 927.0, 928.0, 926.0, 926.0, 927.0, 928.0, 927.0, 927.0, 927.0, 927.0, 929.0, 928.0, 926.0, 926.0, 926.0, 926.0, 927.0, 928.0, 927.0, 927.0, 927.0, 927.0, 928.0, 927.0, 926.0, 927.0, 927.0, 927.0, 930.0, 929.0, 927.0, 927.0, 927.0, 928.0, 927.0, 926.0, 926.0, 927.0, 927.0, 927.0, 927.0, 926.0, 926.0, 927.0, 927.0, 928.0, 928.0, 929.0, 927.0, 927.0, 927.0, 927.0, 926.0, 927.0, 927.0, 926.0, 926.0, 928.0, 926.0, 926.0, 926.0, 928.0, 926.0, 925.0, 927.0, 927.0, 926.0, 927.0, 926.0, 926.0, 927.0, 927.0, 927.0, 926.0, 925.0, 925.0, 929.0, 927.0, 925.0, 925.0, 926.0, 927.0, 927.0, 926.0, 925.0, 927.0, 927.0, 926.0, 926.0, 926.0, 925.0, 926.0, 926.0, 927.0, 925.0, 924.0, 924.0, 927.0, 927.0, 928.0, 926.0, 926.0, 928.0, 926.0, 925.0, 926.0, 928.0, 926.0, 925.0],
      "WindowWidth": [2160.0, 2162.0, 2166.0, 2161.0, 2163.0, 2159.0, 2156.0, 2163.0, 2165.0, 2162.0, 2163.0, 2164.0, 2164.0, 2166.0, 2164.0, 2160.0, 2167.0, 2163.0, 2158.0, 2159.0, 2162.0, 2159.0, 2165.0, 2166.0, 2169.0, 2163.0, 2162.0, 2167.0, 2164.0, 2165.0, 2169.0, 2161.0, 2155.0, 2160.0, 2165.0, 2163.0, 2160.0, 2162.0, 2165.0, 2161.0, 2159.0, 2161.0, 2164.0, 2163.0, 2155.0, 2156.0, 2158.0, 2161.0, 2163.0, 2163.0, 2158.0, 2164.0, 2160.0, 2157.0, 2158.0, 2162.0, 2159.0, 2154.0, 2166.0, 2166.0, 2158.0, 2157.0, 2161.0, 2160.0, 2160.0, 2167.0, 2165.0, 2162.0, 2162.0, 2165.0, 2163.0, 2165.0, 2166.0, 2167.0, 2166.0, 2160.0, 2158.0, 2160.0, 2171.0, 2167.0, 2162.0, 2163.0, 2165.0, 2168.0, 2171.0, 2165.0, 2163.0, 2166.0, 2166.0, 2169.0, 2167.0, 2165.0, 2164.0, 2167.0, 2169.0, 2165.0, 2165.0, 2167.0, 2166.0, 2163.0, 2162.0, 2162.0, 2168.0, 2168.0, 2165.0, 2165.0, 2166.0, 2167.0, 2166.0, 2165.0, 2163.0, 2166.0, 2164.0, 2163.0, 2166.0, 2166.0, 2162.0, 2162.0, 2166.0, 2167.0, 2167.0, 2164.0, 2165.0, 2168.0, 2173.0, 2169.0, 2162.0, 2161.0, 2162.0, 2165.0, 2164.0, 2168.0, 2166.0, 2164.0, 2166.0, 2165.0, 2169.0, 2166.0, 2162.0, 2164.0, 2167.0, 2166.0, 2174.0, 2172.0, 2166.0, 2164.0, 2165.0, 2168.0, 2166.0, 2163.0, 2162.0, 2164.0, 2166.0, 2166.0, 2163.0, 2163.0, 2162.0, 2167.0, 2167.0, 2168.0, 2168.0, 2171.0, 2167.0, 2166.0, 2167.0, 2166.0, 2164.0, 2167.0, 2167.0, 2163.0, 2163.0, 2168.0, 2163.0, 2161.0, 2162.0, 2168.0, 2163.0, 2160.0, 2167.0, 2166.0, 2164.0, 2168.0, 2164.0, 2163.0, 2167.0, 2166.0, 2165.0, 2163.0, 2159.0, 2161.0, 2172.0, 2166.0, 2160.0, 2160.0, 2161.0, 2166.0, 2166.0, 2160.0, 2161.0, 2165.0, 2164.0, 2164.0, 2161.0, 2164.0, 2160.0, 2162.0, 2162.0, 2166.0, 2159.0, 2156.0, 2157.0, 2165.0, 2168.0, 2167.0, 2163.0, 2163.0, 2170.0, 2163.0, 2159.0, 2162.0, 2169.0, 2163.0, 2158.0]
    },
    "slices": {}
  }
}