{
  "AcquisitionMatrixPE": 188,
  "AcquisitionNumber": 1,
  "AcquisitionTime": "19:15:3.065000",
  "BandwidthPerPixelPhaseEncode": 19.46,
  "BaseResolution": 188,
  "ConversionSoftware": "dcm2niix",
  "ConversionSoftwareVersion": "v1.0.20180606 GCC4.8.5",
  "DelayTime": 1.2,
  "DerivedVendorReportedEchoSpacing": 0.000820013,
  "DeviceSerialNumber": "18930",
  "DwellTime": 1.9e-06,
  "EchoTime": 0.02,
  "EffectiveEchoSpacing": 0.000273338,
  "FlipAngle": 80,
  "ImageComments": "Unaliased_MB2_PE2",
  "ImageOrientationPatientDICOM": [0.999406, 0.0222879, -0.0262715, -0.030293, 0.205286, -0.978233],
  "ImageType": [
    "ORIGINAL",
    "PRIMARY",
    "M",
    "MB",
    "ND",
    "MOSAIC"
],
  "InPlanePhaseEncodingDirectionDICOM": "COL",
  "InstitutionAddress": "Oxfordlaan_55_Maastricht_Limburg_NL_6229_EV",
  "InstitutionName": "Scannexus",
  "InstitutionalDepartmentName": "MRI_7T",
  "MRAcquisitionType": "2D",
  "MagneticFieldStrength": 6.98,
  "Manufacturer": "Siemens",
  "ManufacturersModelName": "Investigational_Device_7T",
  "Modality": "MR",
  "MultibandAccelerationFactor": 2,
  "ParallelReductionFactorInPlane": 3,
  "PartialFourier": 0.75,
  "PatientPosition": "HFS",
  "PercentPhaseFOV": 100,
  "PhaseEncodingDirection": "j",
  "PhaseEncodingSteps": 141,
  "PhaseResolution": 1,
  "PixelBandwidth": 1400,
  "ProcedureStepDescription": "FeDem_fMRI",
  "ProtocolName": "cmrr_mbep2d_bold_AP_run4",
  "PulseSequenceDetails": "%CustomerSeq%_cmrr_mbep2d_bold",
  "ReceiveCoilName": "32Ch_Head_7T",
  "ReconMatrixPE": 188,
  "RepetitionTime": 2.6,
  "SAR": 0.0954719,
  "ScanOptions": "PFP_FS",
  "ScanningSequence": "EP",
  "SequenceName": "epfid2d1_188",
  "SequenceVariant": "SK_SS",
  "SeriesDescription": "cmrr_mbep2d_bold_AP_run4",
  "SeriesNumber": 15,
  "ShimSetting": [70, -55, 521, 631, -120, 380, 345, 250],
  "SliceThickness": 1.1,
  "SliceTiming": [0, 0.7325, 0.06, 0.7925, 0.1225, 0.855, 0.1825, 0.915, 0.2425, 0.9775, 0.305, 1.0375, 0.365, 1.1, 0.4275, 1.16, 0.4875, 1.2225, 0.55, 1.2825, 0.61, 1.3425, 0.6725, 0, 0.7325, 0.06, 0.7925, 0.1225, 0.855, 0.1825, 0.915, 0.2425, 0.9775, 0.305, 1.0375, 0.365, 1.1, 0.4275, 1.16, 0.4875, 1.2225, 0.55, 1.2825, 0.61, 1.3425, 0.6725],
  "SoftwareVersions": "syngo_MR_B17",
  "SpacingBetweenSlices": 1.1,
  "StationName": "MRC18930",
  "TaskName": "auditory",
  "TotalReadoutTime": 0.0511141,
  "TxRefAmp": 290,
  "dcmmeta_affine": [
    [-1.0950942039489746, -0.03319339454174042, 0.01805056631565094, 104.30021667480469],
    [-0.024421878159046173, 0.22494132816791534, -1.0762922763824463, 26.037242889404297],
    [-0.028786813840270042, 1.0718936920166016, 0.22642335295677185, -107.83720397949219],
    [0.0, 0.0, 0.0, 1.0]
],
  "dcmmeta_reorient_transform": [
    [0.0, -1.0, 0.0, 187.0],
    [1.0, 0.0, 0.0, 0.0],
    [0.0, 0.0, 1.0, 0.0],
    [0.0, 0.0, 0.0, 1.0]
],
  "dcmmeta_shape": [188, 188, 46, 223],
  "dcmmeta_slice_dim": 2,
  "dcmmeta_version": 0.6,
  "global": {
    "const": {
      "AcquisitionMatrix": [188, 0, 0, 188],
      "AngioFlag": "N",
      "BitsAllocated": 16,
      "BitsStored": 12,
      "Columns": 1316,
      "EchoNumbers": 1,
      "EchoTime": 20.0,
      "EchoTrainLength": 1,
      "FlipAngle": 80.0,
      "HighBit": 11,
      "ImageOrientationPatient": [0.99940635312302, 0.02228792688867, -0.026271460796, -0.0302929993003, 0.20528624649842, -0.9782330454406],
      "ImagePositionPatient": [-697.00513272541, -208.7421152262, 713.39072804608],
      "ImageType": [
        "ORIGINAL",
        "PRIMARY",
        "M",
        "MB",
        "ND",
        "MOSAIC"
],
      "ImagedNucleus": "1H",
      "ImagingFrequency": 297.205555,
      "InPlanePhaseEncodingDirection": "COL",
      "LargestImagePixelValue": 4095,
      "MRAcquisitionType": "2D",
      "MagneticFieldStrength": 6.98,
      "Manufacturer": "SIEMENS",
      "ManufacturerModelName": "Investigational_Device_7T",
      "Modality": "MR",
      "NumberOfAverages": 1.0,
      "NumberOfPhaseEncodingSteps": 141,
      "PercentPhaseFieldOfView": 100.0,
      "PercentSampling": 100.0,
      "PerformedProcedureStepStartTime": "181118.203000",
      "PhotometricInterpretation": "MONOCHROME2",
      "PixelBandwidth": 1400.0,
      "PixelRepresentation": 0,
      "PixelSpacing": [1.0957447290421, 1.0957447290421],
      "ProtocolName": "cmrr_mbep2d_bold_AP_run4",
      "RepetitionTime": 2600.0,
      "Rows": 1316,
      "SAR": 0.09547185686414,
      "SamplesPerPixel": 1,
      "ScanOptions": [
        "PFP",
        "FS"
],
      "ScanningSequence": "EP",
      "SequenceName": "epfid2d1_188",
      "SequenceVariant": [
        "SK",
        "SS"
],
      "SeriesDescription": "cmrr_mbep2d_bold_AP_run4",
      "SeriesNumber": 15,
      "SeriesTime": "191612.453000",
      "SliceLocation": -45.961727267004,
      "SliceThickness": 1.1000000238419,
      "SmallestImagePixelValue": 0,
      "SoftwareVersions": "syngo MR B17",
      "SpacingBetweenSlices": 1.0999992899411,
      "SpecificCharacterSet": "ISO_IR 100",
      "StudyID": "1",
      "StudyTime": "181118.109000",
      "TransmitCoilName": "32Ch_Head_7T",
      "VariableFlipAngleFlag": "N",
      "WindowCenterWidthExplanation": "Algo1",
      "dBdt": 0.0},
    "slices": {}
  },
  "time": {
    "samples": {
      "AcquisitionNumber": [1, 2, 3, 4, 5, 6, 7, 8, 9, 10, 11, 12, 13, 14, 15, 16, 17, 18, 19, 20, 21, 22, 23, 24, 25, 26, 27, 28, 29, 30, 31, 32, 33, 34, 35, 36, 37, 38, 39, 40, 41, 42, 43, 44, 45, 46, 47, 48, 49, 50, 51, 52, 53, 54, 55, 56, 57, 58, 59, 60, 61, 62, 63, 64, 65, 66, 67, 68, 69, 70, 71, 72, 73, 74, 75, 76, 77, 78, 79, 80, 81, 82, 83, 84, 85, 86, 87, 88, 89, 90, 91, 92, 93, 94, 95, 96, 97, 98, 99, 100, 101, 102, 103, 104, 105, 106, 107, 108, 109, 110, 111, 112, 113, 114, 115, 116, 117, 118, 119, 120, 121, 122, 123, 124, 125, 126, 127, 128, 129, 130, 131, 132, 133, 134, 135, 136, 137, 138, 139, 140, 141, 142, 143, 144, 145, 146, 147, 148, 149, 150, 151, 152, 153, 154, 155, 156, 157, 158, 159, 160, 161, 162, 163, 164, 165, 166, 167, 168, 169, 170, 171, 172, 173, 174, 175, 176, 177, 178, 179, 180, 181, 182, 183, 184, 185, 186, 187, 188, 189, 190, 191, 192, 193, 194, 195, 196, 197, 198, 199, 200, 201, 202, 203, 204, 205, 206, 207, 208, 209, 210, 211, 212, 213, 214, 215, 216, 217, 218, 219, 220, 221, 222, 223],
      "AcquisitionTime": ["191503.065000", "191505.675000", "191508.285000", "191510.895000", "191513.505000", "191516.117500", "191518.727500", "191521.337500", "191523.947500", "191526.557500", "191529.167500", "191531.780000", "191534.390000", "191537.000000", "191539.610000", "191542.220000", "191544.832500", "191547.442500", "191550.052500", "191552.662500", "191555.272500", "191557.882500", "191600.495000", "191603.105000", "191605.715000", "191608.325000", "191610.935000", "191613.545000", "191616.157500", "191618.767500", "191621.377500", "191623.987500", "191626.597500", "191629.210000", "191631.820000", "191634.430000", "191637.040000", "191639.650000", "191642.260000", "191644.872500", "191647.482500", "191650.092500", "191652.702500", "191655.312500", "191657.922500", "191700.535000", "191703.145000", "191705.755000", "191708.365000", "191710.975000", "191713.587500", "191716.197500", "191718.807500", "191721.417500", "191724.027500", "191726.637500", "191729.250000", "191731.860000", "191734.470000", "191737.080000", "191739.690000", "191742.300000", "191744.912500", "191747.522500", "191750.132500", "191752.742500", "191755.352500", "191757.965000", "191800.575000", "191803.185000", "191805.795000", "191808.405000", "191811.015000", "191813.627500", "191816.237500", "191818.847500", "191821.457500", "191824.067500", "191826.677500", "191829.290000", "191831.900000", "191834.510000", "191837.120000", "191839.730000", "191842.342500", "191844.952500", "191847.562500", "191850.172500", "191852.782500", "191855.392500", "191858.005000", "191900.615000", "191903.225000", "191905.835000", "191908.445000", "191911.055000", "191913.667500", "191916.277500", "191918.887500", "191921.497500", "191924.107500", "191926.720000", "191929.330000", "191931.940000", "191934.550000", "191937.160000", "191939.770000", "191942.382500", "191944.992500", "191947.602500", "191950.212500", "191952.822500", "191955.432500", "191958.045000", "192000.655000", "192003.265000", "192005.875000", "192008.485000", "192011.097500", "192013.707500", "192016.317500", "192018.927500", "192021.537500", "192024.147500", "192026.760000", "192029.370000", "192031.980000", "192034.590000", "192037.200000", "192039.812500", "192042.422500", "192045.032500", "192047.642500", "192050.252500", "192052.862500", "192055.475000", "192058.085000", "192100.695000", "192103.305000", "192105.915000", "192108.525000", "192111.137500", "192113.747500", "192116.357500", "192118.967500", "192121.577500", "192124.190000", "192126.800000", "192129.410000", "192132.020000", "192134.630000", "192137.240000", "192139.852500", "192142.462500", "192145.072500", "192147.682500", "192150.292500", "192152.902500", "192155.515000", "192158.125000", "192200.735000", "192203.345000", "192205.955000", "192208.567500", "192211.177500", "192213.787500", "192216.397500", "192219.007500", "192221.617500", "192224.230000", "192226.840000", "192229.450000", "192232.060000", "192234.670000", "192237.280000", "192239.892500", "192242.502500", "192245.112500", "192247.722500", "192250.332500", "192252.945000", "192255.555000", "192258.165000", "192300.775000", "192303.385000", "192305.995000", "192308.607500", "192311.217500", "192313.827500", "192316.437500", "192319.047500", "192321.657500", "192324.270000", "192326.880000", "192329.490000", "192332.100000", "192334.710000", "192337.322500", "192339.932500", "192342.542500", "192345.152500", "192347.762500", "192350.372500", "192352.985000", "192355.595000", "192358.205000", "192400.815000", "192403.425000", "192406.035000", "192408.647500", "192411.257500", "192413.867500", "192416.477500", "192419.087500", "192421.700000", "192424.310000", "192426.920000", "192429.530000", "192432.140000", "192434.750000", "192437.362500", "192439.972500", "192442.582500"],
      "ContentTime": ["191612.453000", "191612.453000", "191612.453000", "191612.453000", "191612.468000", "191612.468000", "191612.468000", "191612.468000", "191612.468000", "191612.468000", "191612.468000", "191612.484000", "191612.484000", "191612.484000", "191612.484000", "191612.484000", "191612.484000", "191612.500000", "191612.500000", "191612.500000", "191612.500000", "191612.500000", "191612.500000", "191612.515000", "191612.515000", "191612.515000", "191652.453000", "191652.453000", "191652.453000", "191652.453000", "191652.453000", "191652.453000", "191652.453000", "191652.468000", "191652.468000", "191652.468000", "191652.468000", "191652.484000", "191652.484000", "191652.484000", "191652.484000", "191752.453000", "191752.453000", "191752.453000", "191752.453000", "191752.453000", "191752.453000", "191752.468000", "191752.468000", "191752.468000", "191752.468000", "191752.468000", "191752.468000", "191752.468000", "191752.484000", "191752.484000", "191752.484000", "191752.484000", "191752.484000", "191752.484000", "191752.484000", "191752.500000", "191752.500000", "191752.500000", "191852.453000", "191852.453000", "191852.453000", "191852.453000", "191852.453000", "191852.453000", "191852.453000", "191852.468000", "191852.468000", "191852.468000", "191852.468000", "191852.468000", "191852.468000", "191852.468000", "191852.484000", "191852.484000", "191852.484000", "191852.484000", "191852.484000", "191852.484000", "191852.500000", "191852.500000", "191852.500000", "191952.453000", "191952.453000", "191952.453000", "191952.453000", "191952.468000", "191952.468000", "191952.468000", "191952.468000", "191952.468000", "191952.468000", "191952.468000", "191952.484000", "191952.484000", "191952.484000", "191952.484000", "191952.500000", "191952.500000", "191952.500000", "191952.500000", "191952.500000", "191952.500000", "191952.500000", "191952.515000", "192052.453000", "192052.453000", "192052.453000", "192052.453000", "192052.468000", "192052.468000", "192052.468000", "192052.468000", "192052.484000", "192052.484000", "192052.484000", "192052.484000", "192052.484000", "192052.484000", "192052.484000", "192052.484000", "192052.500000", "192052.500000", "192052.500000", "192052.500000", "192052.500000", "192052.500000", "192052.500000", "192152.453000", "192152.453000", "192152.468000", "192152.468000", "192152.468000", "192152.468000", "192152.468000", "192152.468000", "192152.468000", "192152.484000", "192152.484000", "192152.484000", "192152.484000", "192152.484000", "192152.484000", "192152.484000", "192152.500000", "192152.500000", "192152.500000", "192152.500000", "192152.500000", "192152.500000", "192152.500000", "192252.453000", "192252.453000", "192252.453000", "192252.453000", "192252.453000", "192252.453000", "192252.468000", "192252.468000", "192252.468000", "192252.468000", "192252.468000", "192252.468000", "192252.468000", "192252.484000", "192252.484000", "192252.500000", "192252.500000", "192252.500000", "192252.500000", "192252.500000", "192252.500000", "192252.500000", "192252.515000", "192252.515000", "192352.453000", "192352.453000", "192352.453000", "192352.453000", "192352.453000", "192352.453000", "192352.468000", "192352.468000", "192352.468000", "192352.468000", "192352.468000", "192352.468000", "192352.484000", "192352.484000", "192352.484000", "192352.484000", "192352.500000", "192352.500000", "192352.500000", "192352.500000", "192352.500000", "192352.515000", "192352.515000", "192449.171000", "192449.171000", "192449.171000", "192449.187000", "192449.187000", "192449.187000", "192449.187000", "192449.187000", "192449.187000", "192449.187000", "192449.203000", "192449.203000", "192449.203000", "192449.203000", "192449.203000", "192449.203000", "192449.203000", "192449.218000", "192449.218000", "192449.218000"],
      "InstanceCreationTime": ["191612.453000", "191612.453000", "191612.453000", "191612.453000", "191612.468000", "191612.468000", "191612.468000", "191612.468000", "191612.468000", "191612.468000", "191612.468000", "191612.484000", "191612.484000", "191612.484000", "191612.484000", "191612.484000", "191612.484000", "191612.500000", "191612.500000", "191612.500000", "191612.500000", "191612.500000", "191612.500000", "191612.515000", "191612.515000", "191612.515000", "191652.453000", "191652.453000", "191652.453000", "191652.453000", "191652.453000", "191652.453000", "191652.453000", "191652.468000", "191652.468000", "191652.468000", "191652.468000", "191652.484000", "191652.484000", "191652.484000", "191652.484000", "191752.453000", "191752.453000", "191752.453000", "191752.453000", "191752.453000", "191752.453000", "191752.468000", "191752.468000", "191752.468000", "191752.468000", "191752.468000", "191752.468000", "191752.468000", "191752.484000", "191752.484000", "191752.484000", "191752.484000", "191752.484000", "191752.484000", "191752.484000", "191752.500000", "191752.500000", "191752.500000", "191852.453000", "191852.453000", "191852.453000", "191852.453000", "191852.453000", "191852.453000", "191852.453000", "191852.468000", "191852.468000", "191852.468000", "191852.468000", "191852.468000", "191852.468000", "191852.468000", "191852.484000", "191852.484000", "191852.484000", "191852.484000", "191852.484000", "191852.484000", "191852.500000", "191852.500000", "191852.500000", "191952.453000", "191952.453000", "191952.453000", "191952.453000", "191952.468000", "191952.468000", "191952.468000", "191952.468000", "191952.468000", "191952.468000", "191952.468000", "191952.484000", "191952.484000", "191952.484000", "191952.484000", "191952.500000", "191952.500000", "191952.500000", "191952.500000", "191952.500000", "191952.500000", "191952.500000", "191952.515000", "192052.453000", "192052.453000", "192052.453000", "192052.453000", "192052.468000", "192052.468000", "192052.468000", "192052.468000", "192052.484000", "192052.484000", "192052.484000", "192052.484000", "192052.484000", "192052.484000", "192052.484000", "192052.484000", "192052.500000", "192052.500000", "192052.500000", "192052.500000", "192052.500000", "192052.500000", "192052.500000", "192152.453000", "192152.453000", "192152.468000", "192152.468000", "192152.468000", "192152.468000", "192152.468000", "192152.468000", "192152.468000", "192152.484000", "192152.484000", "192152.484000", "192152.484000", "192152.484000", "192152.484000", "192152.484000", "192152.500000", "192152.500000", "192152.500000", "192152.500000", "192152.500000", "192152.500000", "192152.500000", "192252.453000", "192252.453000", "192252.453000", "192252.453000", "192252.453000", "192252.453000", "192252.468000", "192252.468000", "192252.468000", "192252.468000", "192252.468000", "192252.468000", "192252.468000", "192252.484000", "192252.484000", "192252.500000", "192252.500000", "192252.500000", "192252.500000", "192252.500000", "192252.500000", "192252.500000", "192252.515000", "192252.515000", "192352.453000", "192352.453000", "192352.453000", "192352.453000", "192352.453000", "192352.453000", "192352.468000", "192352.468000", "192352.468000", "192352.468000", "192352.468000", "192352.468000", "192352.484000", "192352.484000", "192352.484000", "192352.484000", "192352.500000", "192352.500000", "192352.500000", "192352.500000", "192352.500000", "192352.515000", "192352.515000", "192449.171000", "192449.171000", "192449.171000", "192449.187000", "192449.187000", "192449.187000", "192449.187000", "192449.187000", "192449.187000", "192449.187000", "192449.203000", "192449.203000", "192449.203000", "192449.203000", "192449.203000", "192449.203000", "192449.203000", "192449.218000", "192449.218000", "192449.218000"],
      "InstanceNumber": [1, 2, 3, 4, 5, 6, 7, 8, 9, 10, 11, 12, 13, 14, 15, 16, 17, 18, 19, 20, 21, 22, 23, 24, 25, 26, 27, 28, 29, 30, 31, 32, 33, 34, 35, 36, 37, 38, 39, 40, 41, 42, 43, 44, 45, 46, 47, 48, 49, 50, 51, 52, 53, 54, 55, 56, 57, 58, 59, 60, 61, 62, 63, 64, 65, 66, 67, 68, 69, 70, 71, 72, 73, 74, 75, 76, 77, 78, 79, 80, 81, 82, 83, 84, 85, 86, 87, 88, 89, 90, 91, 92, 93, 94, 95, 96, 97, 98, 99, 100, 101, 102, 103, 104, 105, 106, 107, 108, 109, 110, 111, 112, 113, 114, 115, 116, 117, 118, 119, 120, 121, 122, 123, 124, 125, 126, 127, 128, 129, 130, 131, 132, 133, 134, 135, 136, 137, 138, 139, 140, 141, 142, 143, 144, 145, 146, 147, 148, 149, 150, 151, 152, 153, 154, 155, 156, 157, 158, 159, 160, 161, 162, 163, 164, 165, 166, 167, 168, 169, 170, 171, 172, 173, 174, 175, 176, 177, 178, 179, 180, 181, 182, 183, 184, 185, 186, 187, 188, 189, 190, 191, 192, 193, 194, 195, 196, 197, 198, 199, 200, 201, 202, 203, 204, 205, 206, 207, 208, 209, 210, 211, 212, 213, 214, 215, 216, 217, 218, 219, 220, 221, 222, 223],
      "WindowCenter": [926.0, 927.0, 927.0, 925.0, 925.0, 926.0, 925.0, 926.0, 926.0, 927.0, 927.0, 926.0, 927.0, 926.0, 925.0, 925.0, 927.0, 927.0, 926.0, 926.0, 926.0, 924.0, 926.0, 927.0, 927.0, 926.0, 925.0, 926.0, 927.0, 926.0, 925.0, 924.0, 925.0, 927.0, 926.0, 924.0, 925.0, 927.0, 925.0, 926.0, 927.0, 927.0, 925.0, 927.0, 926.0, 925.0, 924.0, 925.0, 926.0, 926.0, 925.0, 927.0, 927.0, 925.0, 927.0, 927.0, 927.0, 928.0, 927.0, 927.0, 927.0, 927.0, 925.0, 925.0, 926.0, 926.0, 926.0, 926.0, 926.0, 926.0, 926.0, 926.0, 926.0, 927.0, 928.0, 927.0, 925.0, 924.0, 924.0, 926.0, 927.0, 927.0, 926.0, 926.0, 928.0, 926.0, 926.0, 926.0, 927.0, 926.0, 925.0, 925.0, 926.0, 927.0, 927.0, 926.0, 926.0, 926.0, 926.0, 926.0, 926.0, 927.0, 926.0, 927.0, 927.0, 927.0, 926.0, 928.0, 928.0, 926.0, 925.0, 925.0, 925.0, 925.0, 926.0, 928.0, 926.0, 925.0, 925.0, 927.0, 927.0, 926.0, 926.0, 926.0, 926.0, 927.0, 926.0, 924.0, 925.0, 926.0, 927.0, 925.0, 924.0, 924.0, 925.0, 927.0, 926.0, 925.0, 924.0, 927.0, 926.0, 925.0, 925.0, 925.0, 925.0, 926.0, 927.0, 927.0, 925.0, 925.0, 927.0, 928.0, 925.0, 925.0, 926.0, 925.0, 925.0, 925.0, 925.0, 925.0, 927.0, 926.0, 925.0, 926.0, 927.0, 927.0, 925.0, 925.0, 925.0, 926.0, 926.0, 925.0, 925.0, 926.0, 926.0, 926.0, 925.0, 925.0, 926.0, 926.0, 925.0, 926.0, 926.0, 926.0, 927.0, 927.0, 926.0, 925.0, 925.0, 925.0, 925.0, 925.0, 925.0, 927.0, 927.0, 926.0, 926.0, 926.0, 926.0, 926.0, 925.0, 925.0, 926.0, 925.0, 925.0, 927.0, 925.0, 925.0, 925.0, 925.0, 925.0, 926.0, 926.0, 926.0, 926.0, 926.0, 926.0, 925.0, 925.0, 926.0, 927.0, 926.0, 927.0],
      "WindowWidth": [2173.0, 2174.0, 2173.0, 2169.0, 2167.0, 2169.0, 2169.0, 2171.0, 2172.0, 2176.0, 2176.0, 2171.0, 2173.0, 2171.0, 2168.0, 2167.0, 2174.0, 2173.0, 2170.0, 2171.0, 2169.0, 2165.0, 2171.0, 2174.0, 2175.0, 2171.0, 2166.0, 2169.0, 2173.0, 2168.0, 2166.0, 2165.0, 2169.0, 2175.0, 2169.0, 2162.0, 2168.0, 2173.0, 2167.0, 2169.0, 2173.0, 2171.0, 2167.0, 2174.0, 2172.0, 2167.0, 2164.0, 2166.0, 2168.0, 2168.0, 2168.0, 2174.0, 2173.0, 2170.0, 2173.0, 2174.0, 2172.0, 2177.0, 2173.0, 2174.0, 2175.0, 2171.0, 2166.0, 2169.0, 2170.0, 2169.0, 2170.0, 2170.0, 2170.0, 2170.0, 2167.0, 2169.0, 2172.0, 2174.0, 2178.0, 2175.0, 2164.0, 2162.0, 2162.0, 2170.0, 2172.0, 2171.0, 2169.0, 2170.0, 2177.0, 2170.0, 2169.0, 2169.0, 2172.0, 2170.0, 2168.0, 2168.0, 2172.0, 2174.0, 2172.0, 2168.0, 2170.0, 2170.0, 2169.0, 2169.0, 2170.0, 2173.0, 2171.0, 2173.0, 2173.0, 2172.0, 2170.0, 2177.0, 2176.0, 2170.0, 2167.0, 2165.0, 2165.0, 2166.0, 2170.0, 2176.0, 2169.0, 2164.0, 2167.0, 2172.0, 2171.0, 2169.0, 2169.0, 2169.0, 2170.0, 2173.0, 2170.0, 2163.0, 2169.0, 2170.0, 2172.0, 2165.0, 2163.0, 2162.0, 2165.0, 2172.0, 2166.0, 2162.0, 2163.0, 2170.0, 2169.0, 2166.0, 2167.0, 2166.0, 2165.0, 2171.0, 2175.0, 2172.0, 2168.0, 2166.0, 2174.0, 2175.0, 2166.0, 2164.0, 2170.0, 2167.0, 2167.0, 2167.0, 2166.0, 2166.0, 2172.0, 2170.0, 2169.0, 2170.0, 2174.0, 2174.0, 2167.0, 2165.0, 2167.0, 2170.0, 2169.0, 2165.0, 2166.0, 2172.0, 2169.0, 2168.0, 2165.0, 2167.0, 2170.0, 2169.0, 2166.0, 2168.0, 2169.0, 2171.0, 2173.0, 2174.0, 2169.0, 2165.0, 2166.0, 2167.0, 2166.0, 2166.0, 2167.0, 2172.0, 2171.0, 2168.0, 2170.0, 2170.0, 2171.0, 2170.0, 2165.0, 2166.0, 2170.0, 2167.0, 2168.0, 2173.0, 2166.0, 2166.0, 2167.0, 2166.0, 2167.0, 2168.0, 2169.0, 2167.0, 2170.0, 2171.0, 2169.0, 2164.0, 2165.0, 2169.0, 2173.0, 2168.0, 2172.0]
    },
    "slices": {}
  }
}