{
  "AcquisitionMatrixPE": 188,
  "AcquisitionNumber": 1,
  "AcquisitionTime": "19:37:27.072500",
  "BandwidthPerPixelPhaseEncode": 19.46,
  "BaseResolution": 188,
  "ConversionSoftware": "dcm2niix",
  "ConversionSoftwareVersion": "v1.0.20180606 GCC4.8.5",
  "DelayTime": 1.2,
  "DerivedVendorReportedEchoSpacing": 0.000820013,
  "DeviceSerialNumber": "18930",
  "DwellTime": 1.9e-06,
  "EchoTime": 0.02,
  "EffectiveEchoSpacing": 0.000273338,
  "FlipAngle": 80,
  "ImageComments": "Unaliased_MB2_PE2",
  "ImageOrientationPatientDICOM": [0.999406, 0.0222879, -0.0262715, -0.030293, 0.205286, -0.978233],
  "ImageType": [
    "ORIGINAL",
    "PRIMARY",
    "M",
    "MB",
    "ND",
    "MOSAIC"
],
  "InPlanePhaseEncodingDirectionDICOM": "COL",
  "InstitutionAddress": "Oxfordlaan_55_Maastricht_Limburg_NL_6229_EV",
  "InstitutionName": "Scannexus",
  "InstitutionalDepartmentName": "MRI_7T",
  "MRAcquisitionType": "2D",
  "MagneticFieldStrength": 6.98,
  "Manufacturer": "Siemens",
  "ManufacturersModelName": "Investigational_Device_7T",
  "Modality": "MR",
  "MultibandAccelerationFactor": 2,
  "ParallelReductionFactorInPlane": 3,
  "PartialFourier": 0.75,
  "PatientPosition": "HFS",
  "PercentPhaseFOV": 100,
  "PhaseEncodingDirection": "j",
  "PhaseEncodingSteps": 141,
  "PhaseResolution": 1,
  "PixelBandwidth": 1400,
  "ProcedureStepDescription": "FeDem_fMRI",
  "ProtocolName": "cmrr_mbep2d_bold_AP_run6",
  "PulseSequenceDetails": "%CustomerSeq%_cmrr_mbep2d_bold",
  "ReceiveCoilName": "32Ch_Head_7T",
  "ReconMatrixPE": 188,
  "RepetitionTime": 2.6,
  "SAR": 0.0952161,
  "ScanOptions": "PFP_FS",
  "ScanningSequence": "EP",
  "SequenceName": "epfid2d1_188",
  "SequenceVariant": "SK_SS",
  "SeriesDescription": "cmrr_mbep2d_bold_AP_run6",
  "SeriesNumber": 17,
  "ShimSetting": [70, -55, 521, 631, -120, 380, 345, 250],
  "SliceThickness": 1.1,
  "SliceTiming": [0, 0.7325, 0.06, 0.795, 0.1225, 0.855, 0.1825, 0.9175, 0.245, 0.9775, 0.305, 1.0375, 0.3675, 1.1, 0.4275, 1.16, 0.4875, 1.2225, 0.55, 1.2825, 0.61, 1.345, 0.6725, 0, 0.7325, 0.06, 0.795, 0.1225, 0.855, 0.1825, 0.9175, 0.245, 0.9775, 0.305, 1.0375, 0.3675, 1.1, 0.4275, 1.16, 0.4875, 1.2225, 0.55, 1.2825, 0.61, 1.345, 0.6725],
  "SoftwareVersions": "syngo_MR_B17",
  "SpacingBetweenSlices": 1.1,
  "StationName": "MRC18930",
  "TaskName": "auditory",
  "TotalReadoutTime": 0.0511141,
  "TxRefAmp": 290,
  "dcmmeta_affine": [
    [-1.0950942039489746, -0.03319339454174042, 0.01805056631565094, 104.30021667480469],
    [-0.024421878159046173, 0.22494132816791534, -1.0762922763824463, 26.037242889404297],
    [-0.028786813840270042, 1.0718936920166016, 0.22642335295677185, -107.83720397949219],
    [0.0, 0.0, 0.0, 1.0]
],
  "dcmmeta_reorient_transform": [
    [0.0, -1.0, 0.0, 187.0],
    [1.0, 0.0, 0.0, 0.0],
    [0.0, 0.0, 1.0, 0.0],
    [0.0, 0.0, 0.0, 1.0]
],
  "dcmmeta_shape": [188, 188, 46, 223],
  "dcmmeta_slice_dim": 2,
  "dcmmeta_version": 0.6,
  "global": {
    "const": {
      "AcquisitionMatrix": [188, 0, 0, 188],
      "AngioFlag": "N",
      "BitsAllocated": 16,
      "BitsStored": 12,
      "Columns": 1316,
      "EchoNumbers": 1,
      "EchoTime": 20.0,
      "EchoTrainLength": 1,
      "FlipAngle": 80.0,
      "HighBit": 11,
      "ImageOrientationPatient": [0.99940635312302, 0.02228792688867, -0.026271460796, -0.0302929993003, 0.20528624649842, -0.9782330454406],
      "ImagePositionPatient": [-697.00513272541, -208.7421152262, 713.39072804608],
      "ImageType": [
        "ORIGINAL",
        "PRIMARY",
        "M",
        "MB",
        "ND",
        "MOSAIC"
],
      "ImagedNucleus": "1H",
      "ImagingFrequency": 297.205563,
      "InPlanePhaseEncodingDirection": "COL",
      "LargestImagePixelValue": 4095,
      "MRAcquisitionType": "2D",
      "MagneticFieldStrength": 6.98,
      "Manufacturer": "SIEMENS",
      "ManufacturerModelName": "Investigational_Device_7T",
      "Modality": "MR",
      "NumberOfAverages": 1.0,
      "NumberOfPhaseEncodingSteps": 141,
      "PercentPhaseFieldOfView": 100.0,
      "PercentSampling": 100.0,
      "PerformedProcedureStepStartTime": "181118.203000",
      "PhotometricInterpretation": "MONOCHROME2",
      "PixelBandwidth": 1400.0,
      "PixelRepresentation": 0,
      "PixelSpacing": [1.0957447290421, 1.0957447290421],
      "ProtocolName": "cmrr_mbep2d_bold_AP_run6",
      "RepetitionTime": 2600.0,
      "Rows": 1316,
      "SAR": 0.09521613333965,
      "SamplesPerPixel": 1,
      "ScanOptions": [
        "PFP",
        "FS"
],
      "ScanningSequence": "EP",
      "SequenceName": "epfid2d1_188",
      "SequenceVariant": [
        "SK",
        "SS"
],
      "SeriesDescription": "cmrr_mbep2d_bold_AP_run6",
      "SeriesNumber": 17,
      "SeriesTime": "193828.546000",
      "SliceLocation": -45.961727267004,
      "SliceThickness": 1.1000000238419,
      "SmallestImagePixelValue": 0,
      "SoftwareVersions": "syngo MR B17",
      "SpacingBetweenSlices": 1.0999992899411,
      "SpecificCharacterSet": "ISO_IR 100",
      "StudyID": "1",
      "StudyTime": "181118.109000",
      "TransmitCoilName": "32Ch_Head_7T",
      "VariableFlipAngleFlag": "N",
      "WindowCenterWidthExplanation": "Algo1",
      "dBdt": 0.0},
    "slices": {}
  },
  "time": {
    "samples": {
      "AcquisitionNumber": [1, 2, 3, 4, 5, 6, 7, 8, 9, 10, 11, 12, 13, 14, 15, 16, 17, 18, 19, 20, 21, 22, 23, 24, 25, 26, 27, 28, 29, 30, 31, 32, 33, 34, 35, 36, 37, 38, 39, 40, 41, 42, 43, 44, 45, 46, 47, 48, 49, 50, 51, 52, 53, 54, 55, 56, 57, 58, 59, 60, 61, 62, 63, 64, 65, 66, 67, 68, 69, 70, 71, 72, 73, 74, 75, 76, 77, 78, 79, 80, 81, 82, 83, 84, 85, 86, 87, 88, 89, 90, 91, 92, 93, 94, 95, 96, 97, 98, 99, 100, 101, 102, 103, 104, 105, 106, 107, 108, 109, 110, 111, 112, 113, 114, 115, 116, 117, 118, 119, 120, 121, 122, 123, 124, 125, 126, 127, 128, 129, 130, 131, 132, 133, 134, 135, 136, 137, 138, 139, 140, 141, 142, 143, 144, 145, 146, 147, 148, 149, 150, 151, 152, 153, 154, 155, 156, 157, 158, 159, 160, 161, 162, 163, 164, 165, 166, 167, 168, 169, 170, 171, 172, 173, 174, 175, 176, 177, 178, 179, 180, 181, 182, 183, 184, 185, 186, 187, 188, 189, 190, 191, 192, 193, 194, 195, 196, 197, 198, 199, 200, 201, 202, 203, 204, 205, 206, 207, 208, 209, 210, 211, 212, 213, 214, 215, 216, 217, 218, 219, 220, 221, 222, 223],
      "AcquisitionTime": ["193727.072500", "193729.682500", "193732.292500", "193734.902500", "193737.515000", "193740.125000", "193742.735000", "193745.345000", "193747.955000", "193750.567500", "193753.177500", "193755.787500", "193758.397500", "193801.007500", "193803.617500", "193806.230000", "193808.840000", "193811.450000", "193814.060000", "193816.670000", "193819.280000", "193821.892500", "193824.502500", "193827.112500", "193829.722500", "193832.332500", "193834.945000", "193837.555000", "193840.165000", "193842.775000", "193845.385000", "193847.995000", "193850.607500", "193853.217500", "193855.827500", "193858.437500", "193901.047500", "193903.657500", "193906.270000", "193908.880000", "193911.490000", "193914.100000", "193916.710000", "193919.322500", "193921.932500", "193924.542500", "193927.152500", "193929.762500", "193932.372500", "193934.985000", "193937.595000", "193940.205000", "193942.815000", "193945.425000", "193948.035000", "193950.647500", "193953.257500", "193955.867500", "193958.477500", "194001.087500", "194003.700000", "194006.310000", "194008.920000", "194011.530000", "194014.140000", "194016.750000", "194019.362500", "194021.972500", "194024.582500", "194027.192500", "194029.802500", "194032.412500", "194035.025000", "194037.635000", "194040.245000", "194042.855000", "194045.465000", "194048.077500", "194050.687500", "194053.297500", "194055.907500", "194058.517500", "194101.127500", "194103.740000", "194106.350000", "194108.960000", "194111.570000", "194114.180000", "194116.792500", "194119.402500", "194122.012500", "194124.622500", "194127.232500", "194129.842500", "194132.455000", "194135.065000", "194137.675000", "194140.285000", "194142.895000", "194145.505000", "194148.117500", "194150.727500", "194153.337500", "194155.947500", "194158.557500", "194201.170000", "194203.780000", "194206.390000", "194209.000000", "194211.610000", "194214.220000", "194216.832500", "194219.442500", "194222.052500", "194224.662500", "194227.272500", "194229.882500", "194232.495000", "194235.105000", "194237.715000", "194240.325000", "194242.935000", "194245.547500", "194248.157500", "194250.767500", "194253.377500", "194255.987500", "194258.597500", "194301.210000", "194303.820000", "194306.430000", "194309.040000", "194311.650000", "194314.260000", "194316.872500", "194319.482500", "194322.092500", "194324.702500", "194327.312500", "194329.925000", "194332.535000", "194335.145000", "194337.755000", "194340.365000", "194342.975000", "194345.587500", "194348.197500", "194350.807500", "194353.417500", "194356.027500", "194358.637500", "194401.250000", "194403.860000", "194406.470000", "194409.080000", "194411.690000", "194414.302500", "194416.912500", "194419.522500", "194422.132500", "194424.742500", "194427.352500", "194429.965000", "194432.575000", "194435.185000", "194437.795000", "194440.405000", "194443.015000", "194445.627500", "194448.237500", "194450.847500", "194453.457500", "194456.067500", "194458.680000", "194501.290000", "194503.900000", "194506.510000", "194509.120000", "194511.730000", "194514.342500", "194516.952500", "194519.562500", "194522.172500", "194524.782500", "194527.392500", "194530.005000", "194532.615000", "194535.225000", "194537.835000", "194540.445000", "194543.057500", "194545.667500", "194548.277500", "194550.887500", "194553.497500", "194556.107500", "194558.720000", "194601.330000", "194603.940000", "194606.550000", "194609.160000", "194611.770000", "194614.382500", "194616.992500", "194619.602500", "194622.212500", "194624.822500", "194627.435000", "194630.045000", "194632.655000", "194635.265000", "194637.875000", "194640.485000", "194643.097500", "194645.707500", "194648.317500", "194650.927500", "194653.537500", "194656.147500", "194658.760000", "194701.370000", "194703.980000", "194706.590000"],
      "ContentTime": ["193828.546000", "193828.546000", "193828.546000", "193828.562000", "193828.562000", "193828.562000", "193828.562000", "193828.562000", "193828.562000", "193828.562000", "193828.578000", "193828.578000", "193828.578000", "193828.578000", "193828.578000", "193828.578000", "193828.578000", "193828.578000", "193828.593000", "193828.593000", "193828.593000", "193828.593000", "193928.546000", "193928.546000", "193928.546000", "193928.546000", "193928.546000", "193928.562000", "193928.562000", "193928.562000", "193928.562000", "193928.562000", "193928.562000", "193928.562000", "193928.578000", "193928.578000", "193928.578000", "193928.578000", "193928.578000", "193928.578000", "193928.578000", "193928.578000", "193928.593000", "193928.593000", "193928.593000", "193928.593000", "194028.546000", "194028.546000", "194028.546000", "194028.546000", "194028.546000", "194028.546000", "194028.562000", "194028.562000", "194028.562000", "194028.562000", "194028.562000", "194028.562000", "194028.562000", "194028.578000", "194028.578000", "194028.578000", "194028.578000", "194028.578000", "194028.578000", "194028.578000", "194028.593000", "194028.593000", "194028.593000", "194128.546000", "194128.546000", "194128.546000", "194128.546000", "194128.546000", "194128.546000", "194128.546000", "194128.562000", "194128.562000", "194128.562000", "194128.562000", "194128.562000", "194128.562000", "194128.562000", "194128.578000", "194128.578000", "194128.578000", "194128.578000", "194128.578000", "194128.578000", "194128.578000", "194128.578000", "194128.593000", "194228.546000", "194228.546000", "194228.546000", "194228.546000", "194228.546000", "194228.546000", "194228.562000", "194228.562000", "194228.562000", "194228.562000", "194228.562000", "194228.578000", "194228.578000", "194228.578000", "194228.578000", "194228.578000", "194228.578000", "194228.578000", "194228.593000", "194228.593000", "194228.593000", "194228.593000", "194228.593000", "194328.546000", "194328.546000", "194328.546000", "194328.546000", "194328.546000", "194328.546000", "194328.562000", "194328.562000", "194328.562000", "194328.562000", "194328.562000", "194328.562000", "194328.578000", "194328.578000", "194328.578000", "194328.578000", "194328.578000", "194328.578000", "194328.578000", "194328.593000", "194328.593000", "194328.593000", "194328.593000", "194428.546000", "194428.546000", "194428.546000", "194428.546000", "194428.546000", "194428.546000", "194428.562000", "194428.562000", "194428.562000", "194428.562000", "194428.562000", "194428.562000", "194428.562000", "194428.562000", "194428.578000", "194428.578000", "194428.578000", "194428.578000", "194428.578000", "194428.578000", "194428.593000", "194428.593000", "194428.593000", "194528.546000", "194528.546000", "194528.546000", "194528.546000", "194528.546000", "194528.546000", "194528.546000", "194528.562000", "194528.562000", "194528.562000", "194528.562000", "194528.562000", "194528.562000", "194528.562000", "194528.578000", "194528.578000", "194528.578000", "194528.578000", "194528.578000", "194528.578000", "194528.593000", "194528.593000", "194528.593000", "194628.546000", "194628.546000", "194628.546000", "194628.546000", "194628.546000", "194628.546000", "194628.546000", "194628.562000", "194628.562000", "194628.562000", "194628.562000", "194628.562000", "194628.562000", "194628.562000", "194628.578000", "194628.578000", "194628.578000", "194628.578000", "194628.578000", "194628.578000", "194628.578000", "194628.578000", "194628.593000", "194648.546000", "194648.546000", "194648.546000", "194648.546000", "194648.546000", "194648.562000", "194648.562000", "194648.562000", "194713.671000", "194713.671000", "194713.671000", "194713.671000", "194713.671000", "194713.687000", "194713.687000", "194713.687000"],
      "InstanceCreationTime": ["193828.546000", "193828.546000", "193828.546000", "193828.562000", "193828.562000", "193828.562000", "193828.562000", "193828.562000", "193828.562000", "193828.562000", "193828.578000", "193828.578000", "193828.578000", "193828.578000", "193828.578000", "193828.578000", "193828.578000", "193828.578000", "193828.593000", "193828.593000", "193828.593000", "193828.593000", "193928.546000", "193928.546000", "193928.546000", "193928.546000", "193928.546000", "193928.562000", "193928.562000", "193928.562000", "193928.562000", "193928.562000", "193928.562000", "193928.562000", "193928.578000", "193928.578000", "193928.578000", "193928.578000", "193928.578000", "193928.578000", "193928.578000", "193928.578000", "193928.593000", "193928.593000", "193928.593000", "193928.593000", "194028.546000", "194028.546000", "194028.546000", "194028.546000", "194028.546000", "194028.546000", "194028.562000", "194028.562000", "194028.562000", "194028.562000", "194028.562000", "194028.562000", "194028.562000", "194028.578000", "194028.578000", "194028.578000", "194028.578000", "194028.578000", "194028.578000", "194028.578000", "194028.593000", "194028.593000", "194028.593000", "194128.546000", "194128.546000", "194128.546000", "194128.546000", "194128.546000", "194128.546000", "194128.546000", "194128.562000", "194128.562000", "194128.562000", "194128.562000", "194128.562000", "194128.562000", "194128.562000", "194128.578000", "194128.578000", "194128.578000", "194128.578000", "194128.578000", "194128.578000", "194128.578000", "194128.578000", "194128.593000", "194228.546000", "194228.546000", "194228.546000", "194228.546000", "194228.546000", "194228.546000", "194228.562000", "194228.562000", "194228.562000", "194228.562000", "194228.562000", "194228.578000", "194228.578000", "194228.578000", "194228.578000", "194228.578000", "194228.578000", "194228.578000", "194228.593000", "194228.593000", "194228.593000", "194228.593000", "194228.593000", "194328.546000", "194328.546000", "194328.546000", "194328.546000", "194328.546000", "194328.546000", "194328.562000", "194328.562000", "194328.562000", "194328.562000", "194328.562000", "194328.562000", "194328.578000", "194328.578000", "194328.578000", "194328.578000", "194328.578000", "194328.578000", "194328.578000", "194328.593000", "194328.593000", "194328.593000", "194328.593000", "194428.546000", "194428.546000", "194428.546000", "194428.546000", "194428.546000", "194428.546000", "194428.562000", "194428.562000", "194428.562000", "194428.562000", "194428.562000", "194428.562000", "194428.562000", "194428.562000", "194428.578000", "194428.578000", "194428.578000", "194428.578000", "194428.578000", "194428.578000", "194428.593000", "194428.593000", "194428.593000", "194528.546000", "194528.546000", "194528.546000", "194528.546000", "194528.546000", "194528.546000", "194528.546000", "194528.562000", "194528.562000", "194528.562000", "194528.562000", "194528.562000", "194528.562000", "194528.562000", "194528.578000", "194528.578000", "194528.578000", "194528.578000", "194528.578000", "194528.578000", "194528.593000", "194528.593000", "194528.593000", "194628.546000", "194628.546000", "194628.546000", "194628.546000", "194628.546000", "194628.546000", "194628.546000", "194628.562000", "194628.562000", "194628.562000", "194628.562000", "194628.562000", "194628.562000", "194628.562000", "194628.578000", "194628.578000", "194628.578000", "194628.578000", "194628.578000", "194628.578000", "194628.578000", "194628.578000", "194628.593000", "194648.546000", "194648.546000", "194648.546000", "194648.546000", "194648.546000", "194648.562000", "194648.562000", "194648.562000", "194713.671000", "194713.671000", "194713.671000", "194713.671000", "194713.671000", "194713.687000", "194713.687000", "194713.687000"],
      "InstanceNumber": [1, 2, 3, 4, 5, 6, 7, 8, 9, 10, 11, 12, 13, 14, 15, 16, 17, 18, 19, 20, 21, 22, 23, 24, 25, 26, 27, 28, 29, 30, 31, 32, 33, 34, 35, 36, 37, 38, 39, 40, 41, 42, 43, 44, 45, 46, 47, 48, 49, 50, 51, 52, 53, 54, 55, 56, 57, 58, 59, 60, 61, 62, 63, 64, 65, 66, 67, 68, 69, 70, 71, 72, 73, 74, 75, 76, 77, 78, 79, 80, 81, 82, 83, 84, 85, 86, 87, 88, 89, 90, 91, 92, 93, 94, 95, 96, 97, 98, 99, 100, 101, 102, 103, 104, 105, 106, 107, 108, 109, 110, 111, 112, 113, 114, 115, 116, 117, 118, 119, 120, 121, 122, 123, 124, 125, 126, 127, 128, 129, 130, 131, 132, 133, 134, 135, 136, 137, 138, 139, 140, 141, 142, 143, 144, 145, 146, 147, 148, 149, 150, 151, 152, 153, 154, 155, 156, 157, 158, 159, 160, 161, 162, 163, 164, 165, 166, 167, 168, 169, 170, 171, 172, 173, 174, 175, 176, 177, 178, 179, 180, 181, 182, 183, 184, 185, 186, 187, 188, 189, 190, 191, 192, 193, 194, 195, 196, 197, 198, 199, 200, 201, 202, 203, 204, 205, 206, 207, 208, 209, 210, 211, 212, 213, 214, 215, 216, 217, 218, 219, 220, 221, 222, 223],
      "WindowCenter": [926.0, 926.0, 927.0, 927.0, 925.0, 925.0, 927.0, 926.0, 925.0, 924.0, 925.0, 926.0, 926.0, 925.0, 924.0, 925.0, 925.0, 926.0, 926.0, 924.0, 923.0, 926.0, 926.0, 925.0, 924.0, 924.0, 925.0, 926.0, 924.0, 923.0, 924.0, 924.0, 925.0, 926.0, 926.0, 925.0, 924.0, 926.0, 926.0, 924.0, 924.0, 926.0, 926.0, 925.0, 924.0, 924.0, 924.0, 925.0, 925.0, 925.0, 926.0, 925.0, 923.0, 923.0, 925.0, 926.0, 924.0, 924.0, 925.0, 925.0, 926.0, 926.0, 925.0, 924.0, 925.0, 924.0, 925.0, 925.0, 926.0, 925.0, 925.0, 924.0, 925.0, 925.0, 924.0, 925.0, 926.0, 925.0, 924.0, 924.0, 925.0, 926.0, 926.0, 924.0, 923.0, 924.0, 925.0, 925.0, 925.0, 925.0, 925.0, 924.0, 925.0, 925.0, 925.0, 924.0, 923.0, 924.0, 926.0, 925.0, 924.0, 924.0, 925.0, 926.0, 924.0, 924.0, 926.0, 925.0, 924.0, 925.0, 926.0, 924.0, 923.0, 925.0, 925.0, 925.0, 924.0, 925.0, 925.0, 924.0, 923.0, 924.0, 924.0, 925.0, 926.0, 925.0, 925.0, 926.0, 925.0, 925.0, 925.0, 926.0, 925.0, 925.0, 924.0, 923.0, 923.0, 926.0, 926.0, 925.0, 926.0, 925.0, 925.0, 925.0, 925.0, 924.0, 924.0, 925.0, 925.0, 924.0, 924.0, 925.0, 924.0, 925.0, 926.0, 925.0, 925.0, 925.0, 926.0, 926.0, 924.0, 924.0, 925.0, 925.0, 924.0, 924.0, 925.0, 926.0, 925.0, 925.0, 925.0, 926.0, 925.0, 925.0, 926.0, 926.0, 924.0, 925.0, 926.0, 926.0, 926.0, 925.0, 924.0, 925.0, 924.0, 924.0, 926.0, 924.0, 924.0, 924.0, 925.0, 925.0, 925.0, 925.0, 924.0, 923.0, 924.0, 925.0, 924.0, 924.0, 925.0, 926.0, 925.0, 925.0, 927.0, 925.0, 924.0, 924.0, 923.0, 924.0, 925.0, 924.0, 925.0, 925.0, 924.0, 923.0, 925.0, 925.0, 924.0, 924.0, 924.0, 924.0, 925.0],
      "WindowWidth": [2171.0, 2169.0, 2173.0, 2173.0, 2168.0, 2168.0, 2175.0, 2170.0, 2165.0, 2165.0, 2168.0, 2169.0, 2170.0, 2168.0, 2166.0, 2169.0, 2169.0, 2170.0, 2169.0, 2165.0, 2162.0, 2172.0, 2170.0, 2166.0, 2165.0, 2165.0, 2168.0, 2170.0, 2164.0, 2161.0, 2162.0, 2164.0, 2166.0, 2170.0, 2171.0, 2166.0, 2164.0, 2170.0, 2169.0, 2166.0, 2164.0, 2169.0, 2172.0, 2166.0, 2163.0, 2163.0, 2166.0, 2167.0, 2169.0, 2168.0, 2171.0, 2168.0, 2159.0, 2160.0, 2169.0, 2172.0, 2164.0, 2165.0, 2169.0, 2168.0, 2171.0, 2172.0, 2165.0, 2163.0, 2166.0, 2163.0, 2166.0, 2167.0, 2169.0, 2169.0, 2168.0, 2165.0, 2168.0, 2167.0, 2163.0, 2169.0, 2172.0, 2167.0, 2164.0, 2165.0, 2166.0, 2171.0, 2169.0, 2161.0, 2161.0, 2164.0, 2166.0, 2166.0, 2168.0, 2167.0, 2167.0, 2165.0, 2168.0, 2167.0, 2166.0, 2164.0, 2160.0, 2164.0, 2170.0, 2167.0, 2163.0, 2162.0, 2168.0, 2170.0, 2164.0, 2164.0, 2170.0, 2166.0, 2162.0, 2168.0, 2171.0, 2163.0, 2162.0, 2168.0, 2169.0, 2169.0, 2165.0, 2168.0, 2166.0, 2163.0, 2159.0, 2164.0, 2163.0, 2165.0, 2169.0, 2168.0, 2166.0, 2168.0, 2167.0, 2168.0, 2167.0, 2169.0, 2166.0, 2166.0, 2165.0, 2160.0, 2161.0, 2171.0, 2170.0, 2167.0, 2168.0, 2168.0, 2164.0, 2166.0, 2166.0, 2163.0, 2163.0, 2169.0, 2166.0, 2160.0, 2163.0, 2166.0, 2163.0, 2167.0, 2168.0, 2165.0, 2164.0, 2165.0, 2169.0, 2168.0, 2162.0, 2162.0, 2165.0, 2166.0, 2162.0, 2161.0, 2165.0, 2171.0, 2165.0, 2164.0, 2166.0, 2169.0, 2164.0, 2165.0, 2171.0, 2169.0, 2166.0, 2167.0, 2170.0, 2169.0, 2169.0, 2167.0, 2164.0, 2167.0, 2160.0, 2163.0, 2168.0, 2163.0, 2161.0, 2163.0, 2165.0, 2166.0, 2166.0, 2165.0, 2161.0, 2159.0, 2160.0, 2165.0, 2161.0, 2162.0, 2165.0, 2167.0, 2165.0, 2164.0, 2172.0, 2165.0, 2162.0, 2161.0, 2159.0, 2163.0, 2167.0, 2163.0, 2165.0, 2166.0, 2163.0, 2158.0, 2166.0, 2167.0, 2162.0, 2160.0, 2162.0, 2163.0, 2165.0]
    },
    "slices": {}
  }
}