{
  "AcquisitionMatrixPE": 188,
  "AcquisitionNumber": 1,
  "AcquisitionTime": "19:01:21.075000",
  "BandwidthPerPixelPhaseEncode": 19.46,
  "BaseResolution": 188,
  "ConversionSoftware": "dcm2niix",
  "ConversionSoftwareVersion": "v1.0.20180606 GCC4.8.5",
  "DelayTime": 1.2,
  "DerivedVendorReportedEchoSpacing": 0.000820013,
  "DeviceSerialNumber": "18930",
  "DwellTime": 1.9e-06,
  "EchoTime": 0.02,
  "EffectiveEchoSpacing": 0.000273338,
  "FlipAngle": 80,
  "ImageComments": "Unaliased_MB2_PE2",
  "ImageOrientationPatientDICOM": [0.999406, 0.0222879, -0.0262715, -0.030293, 0.205286, -0.978233],
  "ImageType": [
    "ORIGINAL",
    "PRIMARY",
    "M",
    "MB",
    "ND",
    "MOSAIC"
],
  "InPlanePhaseEncodingDirectionDICOM": "COL",
  "InstitutionAddress": "Oxfordlaan_55_Maastricht_Limburg_NL_6229_EV",
  "InstitutionName": "Scannexus",
  "InstitutionalDepartmentName": "MRI_7T",
  "MRAcquisitionType": "2D",
  "MagneticFieldStrength": 6.98,
  "Manufacturer": "Siemens",
  "ManufacturersModelName": "Investigational_Device_7T",
  "Modality": "MR",
  "MultibandAccelerationFactor": 2,
  "ParallelReductionFactorInPlane": 3,
  "PartialFourier": 0.75,
  "PatientPosition": "HFS",
  "PercentPhaseFOV": 100,
  "PhaseEncodingDirection": "j",
  "PhaseEncodingSteps": 141,
  "PhaseResolution": 1,
  "PixelBandwidth": 1400,
  "ProcedureStepDescription": "FeDem_fMRI",
  "ProtocolName": "cmrr_mbep2d_bold_AP_run3",
  "PulseSequenceDetails": "%CustomerSeq%_cmrr_mbep2d_bold",
  "ReceiveCoilName": "32Ch_Head_7T",
  "ReconMatrixPE": 188,
  "RepetitionTime": 2.6,
  "SAR": 0.0940097,
  "ScanOptions": "PFP_FS",
  "ScanningSequence": "EP",
  "SequenceName": "epfid2d1_188",
  "SequenceVariant": "SK_SS",
  "SeriesDescription": "cmrr_mbep2d_bold_AP_run3",
  "SeriesNumber": 14,
  "ShimSetting": [70, -55, 521, 631, -120, 380, 345, 250],
  "SliceThickness": 1.1,
  "SliceTiming": [0, 0.735, 0.0625, 0.795, 0.1225, 0.855, 0.185, 0.9175, 0.245, 0.9775, 0.305, 1.04, 0.3675, 1.1, 0.4275, 1.1625, 0.49, 1.2225, 0.55, 1.285, 0.6125, 1.345, 0.6725, 0, 0.735, 0.0625, 0.795, 0.1225, 0.855, 0.185, 0.9175, 0.245, 0.9775, 0.305, 1.04, 0.3675, 1.1, 0.4275, 1.1625, 0.49, 1.2225, 0.55, 1.285, 0.6125, 1.345, 0.6725],
  "SoftwareVersions": "syngo_MR_B17",
  "SpacingBetweenSlices": 1.1,
  "StationName": "MRC18930",
  "TaskName": "auditory",
  "TotalReadoutTime": 0.0511141,
  "TxRefAmp": 290,
  "dcmmeta_affine": [
    [-1.0950942039489746, -0.03319339454174042, 0.01805056631565094, 104.30021667480469],
    [-0.024421878159046173, 0.22494132816791534, -1.0762922763824463, 26.037242889404297],
    [-0.028786813840270042, 1.0718936920166016, 0.22642335295677185, -107.83720397949219],
    [0.0, 0.0, 0.0, 1.0]
],
  "dcmmeta_reorient_transform": [
    [0.0, -1.0, 0.0, 187.0],
    [1.0, 0.0, 0.0, 0.0],
    [0.0, 0.0, 1.0, 0.0],
    [0.0, 0.0, 0.0, 1.0]
],
  "dcmmeta_shape": [188, 188, 46, 223],
  "dcmmeta_slice_dim": 2,
  "dcmmeta_version": 0.6,
  "global": {
    "const": {
      "AcquisitionMatrix": [188, 0, 0, 188],
      "AngioFlag": "N",
      "BitsAllocated": 16,
      "BitsStored": 12,
      "Columns": 1316,
      "EchoNumbers": 1,
      "EchoTime": 20.0,
      "EchoTrainLength": 1,
      "FlipAngle": 80.0,
      "HighBit": 11,
      "ImageOrientationPatient": [0.99940635312302, 0.02228792688867, -0.026271460796, -0.0302929993003, 0.20528624649842, -0.9782330454406],
      "ImagePositionPatient": [-697.00513272541, -208.7421152262, 713.39072804608],
      "ImageType": [
        "ORIGINAL",
        "PRIMARY",
        "M",
        "MB",
        "ND",
        "MOSAIC"
],
      "ImagedNucleus": "1H",
      "ImagingFrequency": 297.205551,
      "InPlanePhaseEncodingDirection": "COL",
      "LargestImagePixelValue": 4095,
      "MRAcquisitionType": "2D",
      "MagneticFieldStrength": 6.98,
      "Manufacturer": "SIEMENS",
      "ManufacturerModelName": "Investigational_Device_7T",
      "Modality": "MR",
      "NumberOfAverages": 1.0,
      "NumberOfPhaseEncodingSteps": 141,
      "PercentPhaseFieldOfView": 100.0,
      "PercentSampling": 100.0,
      "PerformedProcedureStepStartTime": "181118.203000",
      "PhotometricInterpretation": "MONOCHROME2",
      "PixelBandwidth": 1400.0,
      "PixelRepresentation": 0,
      "PixelSpacing": [1.0957447290421, 1.0957447290421],
      "ProtocolName": "cmrr_mbep2d_bold_AP_run3",
      "RepetitionTime": 2600.0,
      "Rows": 1316,
      "SAR": 0.09400967284464,
      "SamplesPerPixel": 1,
      "ScanOptions": [
        "PFP",
        "FS"
],
      "ScanningSequence": "EP",
      "SequenceName": "epfid2d1_188",
      "SequenceVariant": [
        "SK",
        "SS"
],
      "SeriesDescription": "cmrr_mbep2d_bold_AP_run3",
      "SeriesNumber": 14,
      "SeriesTime": "190228.546000",
      "SliceLocation": -45.961727267004,
      "SliceThickness": 1.1000000238419,
      "SmallestImagePixelValue": 0,
      "SoftwareVersions": "syngo MR B17",
      "SpacingBetweenSlices": 1.0999992899411,
      "SpecificCharacterSet": "ISO_IR 100",
      "StudyID": "1",
      "StudyTime": "181118.109000",
      "TransmitCoilName": "32Ch_Head_7T",
      "VariableFlipAngleFlag": "N",
      "WindowCenterWidthExplanation": "Algo1",
      "dBdt": 0.0},
    "slices": {}
  },
  "time": {
    "samples": {
      "AcquisitionNumber": [1, 2, 3, 4, 5, 6, 7, 8, 9, 10, 11, 12, 13, 14, 15, 16, 17, 18, 19, 20, 21, 22, 23, 24, 25, 26, 27, 28, 29, 30, 31, 32, 33, 34, 35, 36, 37, 38, 39, 40, 41, 42, 43, 44, 45, 46, 47, 48, 49, 50, 51, 52, 53, 54, 55, 56, 57, 58, 59, 60, 61, 62, 63, 64, 65, 66, 67, 68, 69, 70, 71, 72, 73, 74, 75, 76, 77, 78, 79, 80, 81, 82, 83, 84, 85, 86, 87, 88, 89, 90, 91, 92, 93, 94, 95, 96, 97, 98, 99, 100, 101, 102, 103, 104, 105, 106, 107, 108, 109, 110, 111, 112, 113, 114, 115, 116, 117, 118, 119, 120, 121, 122, 123, 124, 125, 126, 127, 128, 129, 130, 131, 132, 133, 134, 135, 136, 137, 138, 139, 140, 141, 142, 143, 144, 145, 146, 147, 148, 149, 150, 151, 152, 153, 154, 155, 156, 157, 158, 159, 160, 161, 162, 163, 164, 165, 166, 167, 168, 169, 170, 171, 172, 173, 174, 175, 176, 177, 178, 179, 180, 181, 182, 183, 184, 185, 186, 187, 188, 189, 190, 191, 192, 193, 194, 195, 196, 197, 198, 199, 200, 201, 202, 203, 204, 205, 206, 207, 208, 209, 210, 211, 212, 213, 214, 215, 216, 217, 218, 219, 220, 221, 222, 223],
      "AcquisitionTime": ["190121.075000", "190123.685000", "190126.297500", "190128.907500", "190131.517500", "190134.127500", "190136.737500", "190139.347500", "190141.960000", "190144.570000", "190147.180000", "190149.790000", "190152.400000", "190155.012500", "190157.622500", "190200.232500", "190202.842500", "190205.452500", "190208.062500", "190210.675000", "190213.285000", "190215.895000", "190218.505000", "190221.115000", "190223.725000", "190226.337500", "190228.947500", "190231.557500", "190234.167500", "190236.777500", "190239.390000", "190242.000000", "190244.610000", "190247.220000", "190249.830000", "190252.440000", "190255.052500", "190257.662500", "190300.272500", "190302.882500", "190305.492500", "190308.102500", "190310.715000", "190313.325000", "190315.935000", "190318.545000", "190321.155000", "190323.767500", "190326.377500", "190328.987500", "190331.597500", "190334.207500", "190336.817500", "190339.430000", "190342.040000", "190344.650000", "190347.260000", "190349.870000", "190352.480000", "190355.092500", "190357.702500", "190400.312500", "190402.922500", "190405.532500", "190408.145000", "190410.755000", "190413.365000", "190415.975000", "190418.585000", "190421.195000", "190423.807500", "190426.417500", "190429.027500", "190431.637500", "190434.247500", "190436.857500", "190439.470000", "190442.080000", "190444.690000", "190447.300000", "190449.910000", "190452.522500", "190455.132500", "190457.742500", "190500.352500", "190502.962500", "190505.572500", "190508.185000", "190510.795000", "190513.405000", "190516.015000", "190518.625000", "190521.235000", "190523.847500", "190526.457500", "190529.067500", "190531.677500", "190534.287500", "190536.900000", "190539.510000", "190542.120000", "190544.730000", "190547.340000", "190549.950000", "190552.562500", "190555.172500", "190557.782500", "190600.392500", "190603.002500", "190605.612500", "190608.225000", "190610.835000", "190613.445000", "190616.055000", "190618.665000", "190621.277500", "190623.887500", "190626.497500", "190629.107500", "190631.717500", "190634.327500", "190636.940000", "190639.550000", "190642.160000", "190644.770000", "190647.380000", "190649.990000", "190652.602500", "190655.212500", "190657.822500", "190700.432500", "190703.042500", "190705.655000", "190708.265000", "190710.875000", "190713.485000", "190716.095000", "190718.705000", "190721.317500", "190723.927500", "190726.537500", "190729.147500", "190731.757500", "190734.367500", "190736.980000", "190739.590000", "190742.200000", "190744.810000", "190747.420000", "190750.032500", "190752.642500", "190755.252500", "190757.862500", "190800.472500", "190803.082500", "190805.695000", "190808.305000", "190810.915000", "190813.525000", "190816.135000", "190818.745000", "190821.357500", "190823.967500", "190826.577500", "190829.187500", "190831.797500", "190834.410000", "190837.020000", "190839.630000", "190842.240000", "190844.850000", "190847.460000", "190850.072500", "190852.682500", "190855.292500", "190857.902500", "190900.512500", "190903.125000", "190905.735000", "190908.345000", "190910.955000", "190913.565000", "190916.175000", "190918.787500", "190921.397500", "190924.007500", "190926.617500", "190929.227500", "190931.837500", "190934.450000", "190937.060000", "190939.670000", "190942.280000", "190944.890000", "190947.502500", "190950.112500", "190952.722500", "190955.332500", "190957.942500", "191000.552500", "191003.165000", "191005.775000", "191008.385000", "191010.995000", "191013.605000", "191016.215000", "191018.827500", "191021.437500", "191024.047500", "191026.657500", "191029.267500", "191031.880000", "191034.490000", "191037.100000", "191039.710000", "191042.320000", "191044.930000", "191047.542500", "191050.152500", "191052.762500", "191055.372500", "191057.982500", "191100.592500"],
      "ContentTime": ["190228.546000", "190228.546000", "190228.546000", "190228.562000", "190228.562000", "190228.562000", "190228.562000", "190228.562000", "190228.562000", "190228.562000", "190228.562000", "190228.578000", "190228.578000", "190228.578000", "190228.578000", "190228.578000", "190228.578000", "190228.578000", "190228.578000", "190228.593000", "190228.593000", "190228.593000", "190228.593000", "190228.593000", "190228.609000", "190328.546000", "190328.546000", "190328.546000", "190328.546000", "190328.546000", "190328.546000", "190328.562000", "190328.562000", "190328.562000", "190328.562000", "190328.578000", "190328.578000", "190328.578000", "190328.578000", "190328.578000", "190328.578000", "190328.578000", "190328.578000", "190328.593000", "190328.593000", "190328.593000", "190328.593000", "190328.593000", "190428.546000", "190428.546000", "190428.546000", "190428.546000", "190428.546000", "190428.546000", "190428.562000", "190428.562000", "190428.562000", "190428.562000", "190428.562000", "190428.562000", "190428.578000", "190428.578000", "190428.578000", "190428.578000", "190428.578000", "190428.578000", "190428.593000", "190428.593000", "190428.593000", "190428.593000", "190428.593000", "190528.546000", "190528.546000", "190528.546000", "190528.546000", "190528.546000", "190528.546000", "190528.562000", "190528.562000", "190528.562000", "190528.562000", "190528.562000", "190528.562000", "190528.562000", "190528.562000", "190528.578000", "190528.578000", "190528.578000", "190528.578000", "190528.593000", "190528.593000", "190528.593000", "190528.593000", "190528.593000", "190628.546000", "190628.546000", "190628.546000", "190628.546000", "190628.546000", "190628.562000", "190628.562000", "190628.562000", "190628.562000", "190628.562000", "190628.562000", "190628.562000", "190628.562000", "190628.578000", "190628.578000", "190628.578000", "190628.578000", "190628.578000", "190628.593000", "190628.593000", "190628.593000", "190628.593000", "190628.593000", "190648.546000", "190648.546000", "190648.546000", "190648.546000", "190648.546000", "190648.546000", "190648.562000", "190648.562000", "190748.546000", "190748.546000", "190748.546000", "190748.546000", "190748.546000", "190748.546000", "190748.546000", "190748.562000", "190748.562000", "190748.562000", "190748.562000", "190748.562000", "190748.562000", "190748.562000", "190748.578000", "190748.578000", "190748.578000", "190748.578000", "190748.578000", "190748.578000", "190748.578000", "190748.593000", "190748.593000", "190848.546000", "190848.546000", "190848.546000", "190848.546000", "190848.546000", "190848.546000", "190848.546000", "190848.562000", "190848.562000", "190848.562000", "190848.562000", "190848.562000", "190848.562000", "190848.562000", "190848.562000", "190848.578000", "190848.578000", "190848.578000", "190848.578000", "190848.578000", "190848.578000", "190848.578000", "190848.593000", "190948.546000", "190948.546000", "190948.546000", "190948.562000", "190948.562000", "190948.562000", "190948.562000", "190948.562000", "190948.562000", "190948.578000", "190948.578000", "190948.578000", "190948.578000", "190948.578000", "190948.578000", "190948.593000", "190948.593000", "190948.593000", "190948.593000", "190948.593000", "190948.593000", "190948.593000", "190948.593000", "191048.546000", "191048.546000", "191048.546000", "191048.546000", "191048.546000", "191048.562000", "191048.562000", "191048.562000", "191048.562000", "191048.562000", "191048.562000", "191048.578000", "191048.578000", "191048.578000", "191048.578000", "191048.578000", "191048.578000", "191048.578000", "191048.593000", "191048.593000", "191048.593000", "191048.593000", "191048.593000", "191107.640000", "191107.640000", "191107.640000", "191107.640000", "191107.640000", "191107.640000"],
      "InstanceCreationTime": ["190228.546000", "190228.546000", "190228.546000", "190228.562000", "190228.562000", "190228.562000", "190228.562000", "190228.562000", "190228.562000", "190228.562000", "190228.562000", "190228.578000", "190228.578000", "190228.578000", "190228.578000", "190228.578000", "190228.578000", "190228.578000", "190228.578000", "190228.593000", "190228.593000", "190228.593000", "190228.593000", "190228.593000", "190228.609000", "190328.546000", "190328.546000", "190328.546000", "190328.546000", "190328.546000", "190328.546000", "190328.562000", "190328.562000", "190328.562000", "190328.562000", "190328.578000", "190328.578000", "190328.578000", "190328.578000", "190328.578000", "190328.578000", "190328.578000", "190328.578000", "190328.593000", "190328.593000", "190328.593000", "190328.593000", "190328.593000", "190428.546000", "190428.546000", "190428.546000", "190428.546000", "190428.546000", "190428.546000", "190428.562000", "190428.562000", "190428.562000", "190428.562000", "190428.562000", "190428.562000", "190428.578000", "190428.578000", "190428.578000", "190428.578000", "190428.578000", "190428.578000", "190428.593000", "190428.593000", "190428.593000", "190428.593000", "190428.593000", "190528.546000", "190528.546000", "190528.546000", "190528.546000", "190528.546000", "190528.546000", "190528.562000", "190528.562000", "190528.562000", "190528.562000", "190528.562000", "190528.562000", "190528.562000", "190528.562000", "190528.578000", "190528.578000", "190528.578000", "190528.578000", "190528.593000", "190528.593000", "190528.593000", "190528.593000", "190528.593000", "190628.546000", "190628.546000", "190628.546000", "190628.546000", "190628.546000", "190628.562000", "190628.562000", "190628.562000", "190628.562000", "190628.562000", "190628.562000", "190628.562000", "190628.562000", "190628.578000", "190628.578000", "190628.578000", "190628.578000", "190628.578000", "190628.593000", "190628.593000", "190628.593000", "190628.593000", "190628.593000", "190648.546000", "190648.546000", "190648.546000", "190648.546000", "190648.546000", "190648.546000", "190648.562000", "190648.562000", "190748.546000", "190748.546000", "190748.546000", "190748.546000", "190748.546000", "190748.546000", "190748.546000", "190748.562000", "190748.562000", "190748.562000", "190748.562000", "190748.562000", "190748.562000", "190748.562000", "190748.578000", "190748.578000", "190748.578000", "190748.578000", "190748.578000", "190748.578000", "190748.578000", "190748.593000", "190748.593000", "190848.546000", "190848.546000", "190848.546000", "190848.546000", "190848.546000", "190848.546000", "190848.546000", "190848.562000", "190848.562000", "190848.562000", "190848.562000", "190848.562000", "190848.562000", "190848.562000", "190848.562000", "190848.578000", "190848.578000", "190848.578000", "190848.578000", "190848.578000", "190848.578000", "190848.578000", "190848.593000", "190948.546000", "190948.546000", "190948.546000", "190948.562000", "190948.562000", "190948.562000", "190948.562000", "190948.562000", "190948.562000", "190948.578000", "190948.578000", "190948.578000", "190948.578000", "190948.578000", "190948.578000", "190948.593000", "190948.593000", "190948.593000", "190948.593000", "190948.593000", "190948.593000", "190948.593000", "190948.593000", "191048.546000", "191048.546000", "191048.546000", "191048.546000", "191048.546000", "191048.562000", "191048.562000", "191048.562000", "191048.562000", "191048.562000", "191048.562000", "191048.578000", "191048.578000", "191048.578000", "191048.578000", "191048.578000", "191048.578000", "191048.578000", "191048.593000", "191048.593000", "191048.593000", "191048.593000", "191048.593000", "191107.640000", "191107.640000", "191107.640000", "191107.640000", "191107.640000", "191107.640000"],
      "InstanceNumber": [1, 2, 3, 4, 5, 6, 7, 8, 9, 10, 11, 12, 13, 14, 15, 16, 17, 18, 19, 20, 21, 22, 23, 24, 25, 26, 27, 28, 29, 30, 31, 32, 33, 34, 35, 36, 37, 38, 39, 40, 41, 42, 43, 44, 45, 46, 47, 48, 49, 50, 51, 52, 53, 54, 55, 56, 57, 58, 59, 60, 61, 62, 63, 64, 65, 66, 67, 68, 69, 70, 71, 72, 73, 74, 75, 76, 77, 78, 79, 80, 81, 82, 83, 84, 85, 86, 87, 88, 89, 90, 91, 92, 93, 94, 95, 96, 97, 98, 99, 100, 101, 102, 103, 104, 105, 106, 107, 108, 109, 110, 111, 112, 113, 114, 115, 116, 117, 118, 119, 120, 121, 122, 123, 124, 125, 126, 127, 128, 129, 130, 131, 132, 133, 134, 135, 136, 137, 138, 139, 140, 141, 142, 143, 144, 145, 146, 147, 148, 149, 150, 151, 152, 153, 154, 155, 156, 157, 158, 159, 160, 161, 162, 163, 164, 165, 166, 167, 168, 169, 170, 171, 172, 173, 174, 175, 176, 177, 178, 179, 180, 181, 182, 183, 184, 185, 186, 187, 188, 189, 190, 191, 192, 193, 194, 195, 196, 197, 198, 199, 200, 201, 202, 203, 204, 205, 206, 207, 208, 209, 210, 211, 212, 213, 214, 215, 216, 217, 218, 219, 220, 221, 222, 223],
      "WindowCenter": [928.0, 926.0, 926.0, 926.0, 926.0, 927.0, 926.0, 925.0, 925.0, 925.0, 928.0, 926.0, 925.0, 926.0, 926.0, 925.0, 927.0, 927.0, 927.0, 926.0, 926.0, 927.0, 926.0, 926.0, 926.0, 926.0, 925.0, 924.0, 927.0, 926.0, 925.0, 924.0, 925.0, 926.0, 926.0, 925.0, 926.0, 927.0, 925.0, 926.0, 925.0, 927.0, 926.0, 926.0, 925.0, 925.0, 927.0, 926.0, 926.0, 925.0, 925.0, 925.0, 926.0, 926.0, 926.0, 925.0, 926.0, 925.0, 926.0, 925.0, 925.0, 925.0, 926.0, 927.0, 925.0, 924.0, 925.0, 926.0, 926.0, 924.0, 924.0, 925.0, 926.0, 926.0, 927.0, 927.0, 926.0, 925.0, 927.0, 928.0, 926.0, 924.0, 925.0, 926.0, 926.0, 925.0, 925.0, 926.0, 926.0, 925.0, 926.0, 926.0, 926.0, 926.0, 924.0, 926.0, 925.0, 925.0, 925.0, 926.0, 926.0, 925.0, 925.0, 926.0, 925.0, 925.0, 927.0, 928.0, 927.0, 925.0, 925.0, 926.0, 925.0, 924.0, 926.0, 925.0, 925.0, 925.0, 925.0, 925.0, 925.0, 927.0, 925.0, 924.0, 925.0, 925.0, 927.0, 925.0, 923.0, 923.0, 925.0, 926.0, 925.0, 926.0, 925.0, 926.0, 926.0, 925.0, 926.0, 925.0, 925.0, 925.0, 925.0, 924.0, 924.0, 925.0, 925.0, 925.0, 927.0, 926.0, 924.0, 925.0, 925.0, 925.0, 925.0, 925.0, 925.0, 924.0, 924.0, 925.0, 926.0, 925.0, 926.0, 928.0, 925.0, 924.0, 925.0, 926.0, 925.0, 924.0, 925.0, 924.0, 925.0, 925.0, 924.0, 926.0, 926.0, 924.0, 924.0, 925.0, 925.0, 924.0, 923.0, 925.0, 925.0, 925.0, 924.0, 925.0, 926.0, 924.0, 924.0, 925.0, 925.0, 924.0, 925.0, 925.0, 927.0, 925.0, 924.0, 922.0, 923.0, 923.0, 924.0, 927.0, 926.0, 924.0, 924.0, 925.0, 924.0, 924.0, 925.0, 925.0, 924.0, 923.0, 925.0, 924.0, 924.0, 925.0, 924.0, 924.0, 924.0, 927.0, 926.0],
      "WindowWidth": [2177.0, 2172.0, 2170.0, 2171.0, 2170.0, 2172.0, 2170.0, 2168.0, 2169.0, 2169.0, 2176.0, 2170.0, 2169.0, 2171.0, 2170.0, 2168.0, 2173.0, 2175.0, 2173.0, 2171.0, 2171.0, 2174.0, 2172.0, 2170.0, 2171.0, 2172.0, 2167.0, 2163.0, 2174.0, 2171.0, 2166.0, 2166.0, 2170.0, 2172.0, 2170.0, 2167.0, 2171.0, 2176.0, 2169.0, 2169.0, 2169.0, 2174.0, 2172.0, 2170.0, 2168.0, 2168.0, 2174.0, 2172.0, 2169.0, 2168.0, 2167.0, 2167.0, 2171.0, 2172.0, 2171.0, 2169.0, 2169.0, 2169.0, 2171.0, 2167.0, 2167.0, 2166.0, 2171.0, 2174.0, 2167.0, 2163.0, 2165.0, 2172.0, 2170.0, 2162.0, 2164.0, 2168.0, 2171.0, 2172.0, 2174.0, 2173.0, 2169.0, 2168.0, 2174.0, 2177.0, 2168.0, 2166.0, 2169.0, 2171.0, 2171.0, 2168.0, 2168.0, 2170.0, 2171.0, 2169.0, 2170.0, 2172.0, 2170.0, 2169.0, 2165.0, 2173.0, 2168.0, 2165.0, 2168.0, 2170.0, 2171.0, 2168.0, 2171.0, 2173.0, 2168.0, 2169.0, 2175.0, 2179.0, 2173.0, 2166.0, 2168.0, 2172.0, 2167.0, 2166.0, 2170.0, 2169.0, 2166.0, 2169.0, 2168.0, 2166.0, 2169.0, 2174.0, 2170.0, 2163.0, 2168.0, 2168.0, 2175.0, 2168.0, 2162.0, 2163.0, 2168.0, 2171.0, 2171.0, 2171.0, 2169.0, 2171.0, 2171.0, 2170.0, 2171.0, 2166.0, 2169.0, 2170.0, 2170.0, 2165.0, 2166.0, 2170.0, 2167.0, 2170.0, 2174.0, 2171.0, 2166.0, 2170.0, 2170.0, 2168.0, 2167.0, 2169.0, 2167.0, 2165.0, 2165.0, 2168.0, 2170.0, 2168.0, 2171.0, 2177.0, 2167.0, 2164.0, 2169.0, 2171.0, 2168.0, 2165.0, 2166.0, 2166.0, 2166.0, 2167.0, 2166.0, 2173.0, 2171.0, 2165.0, 2165.0, 2170.0, 2170.0, 2167.0, 2163.0, 2167.0, 2169.0, 2169.0, 2165.0, 2168.0, 2171.0, 2166.0, 2164.0, 2168.0, 2167.0, 2166.0, 2168.0, 2169.0, 2175.0, 2168.0, 2163.0, 2161.0, 2160.0, 2161.0, 2166.0, 2175.0, 2172.0, 2166.0, 2168.0, 2169.0, 2165.0, 2165.0, 2172.0, 2169.0, 2165.0, 2164.0, 2168.0, 2167.0, 2167.0, 2168.0, 2166.0, 2163.0, 2166.0, 2176.0, 2173.0]
    },
    "slices": {}
  }
}