{
  "AcquisitionMatrixPE": 188,
  "AcquisitionNumber": 1,
  "AcquisitionTime": "17:56:5.177500",
  "BandwidthPerPixelPhaseEncode": 19.46,
  "BaseResolution": 188,
  "ConversionSoftware": "dcm2niix",
  "ConversionSoftwareVersion": "v1.0.20180606 GCC4.8.5",
  "DelayTime": 1.2,
  "DerivedVendorReportedEchoSpacing": 0.000820013,
  "DeviceSerialNumber": "18930",
  "DwellTime": 1.9e-06,
  "EchoTime": 0.02,
  "EffectiveEchoSpacing": 0.000273338,
  "FlipAngle": 80,
  "ImageComments": "Unaliased_MB2_PE2",
  "ImageOrientationPatientDICOM": [0.999887, 0.0133051, -0.00693815, -0.010026, 0.248365, -0.968615],
  "ImageType": [
    "ORIGINAL",
    "PRIMARY",
    "M",
    "MB",
    "ND",
    "MOSAIC"
],
  "InPlanePhaseEncodingDirectionDICOM": "COL",
  "InstitutionAddress": "Oxfordlaan_55_Maastricht_Limburg_NL_6229_EV",
  "InstitutionName": "Scannexus",
  "InstitutionalDepartmentName": "MRI_7T",
  "MRAcquisitionType": "2D",
  "MagneticFieldStrength": 6.98,
  "Manufacturer": "Siemens",
  "ManufacturersModelName": "Investigational_Device_7T",
  "Modality": "MR",
  "MultibandAccelerationFactor": 2,
  "ParallelReductionFactorInPlane": 3,
  "PartialFourier": 0.75,
  "PatientPosition": "HFS",
  "PercentPhaseFOV": 100,
  "PhaseEncodingDirection": "j",
  "PhaseEncodingSteps": 141,
  "PhaseResolution": 1,
  "PixelBandwidth": 1400,
  "ProcedureStepDescription": "FeDem_Faruk",
  "ProtocolName": "cmrr_mbep2d_bold_AP_run7",
  "PulseSequenceDetails": "%CustomerSeq%_cmrr_mbep2d_bold",
  "ReceiveCoilName": "32Ch_Head_7T",
  "ReconMatrixPE": 188,
  "RepetitionTime": 2.6,
  "SAR": 0.063937,
  "ScanOptions": "PFP_FS",
  "ScanningSequence": "EP",
  "SequenceName": "epfid2d1_188",
  "SequenceVariant": "SK_SS",
  "SeriesDescription": "cmrr_mbep2d_bold_AP_run7",
  "SeriesNumber": 17,
  "ShimSetting": [118, -208, 551, 585, 8, -215, -51, 92],
  "SliceThickness": 1.1,
  "SliceTiming": [0, 0.7325, 0.06, 0.795, 0.1225, 0.855, 0.1825, 0.9175, 0.245, 0.9775, 0.305, 1.04, 0.3675, 1.1, 0.4275, 1.16, 0.49, 1.2225, 0.55, 1.2825, 0.61, 1.345, 0.6725, 0, 0.7325, 0.06, 0.795, 0.1225, 0.855, 0.1825, 0.9175, 0.245, 0.9775, 0.305, 1.04, 0.3675, 1.1, 0.4275, 1.16, 0.49, 1.2225, 0.55, 1.2825, 0.61, 1.345, 0.6725],
  "SoftwareVersions": "syngo_MR_B17",
  "SpacingBetweenSlices": 1.1,
  "StationName": "MRC18930",
  "TaskName": "auditory",
  "TotalReadoutTime": 0.0511141,
  "TxRefAmp": 250,
  "dcmmeta_affine": [
    [-1.0956213474273682, -0.01098596677184105, 0.012280714698135853, 104.83442687988281],
    [-0.01457894779741764, 0.2721441388130188, -1.0654327869415283, 17.5076904296875],
    [-0.0076024411246180534, 1.0613545179367065, 0.27331697940826416, -115.14860534667969],
    [0.0, 0.0, 0.0, 1.0]
],
  "dcmmeta_reorient_transform": [
    [0.0, -1.0, 0.0, 187.0],
    [1.0, 0.0, 0.0, 0.0],
    [0.0, 0.0, 1.0, 0.0],
    [0.0, 0.0, 0.0, 1.0]
],
  "dcmmeta_shape": [188, 188, 46, 218],
  "dcmmeta_slice_dim": 2,
  "dcmmeta_version": 0.6,
  "global": {
    "const": {
      "AcquisitionMatrix": [188, 0, 0, 188],
      "AngioFlag": "N",
      "BitsAllocated": 16,
      "BitsStored": 12,
      "Columns": 1316,
      "EchoNumbers": 1,
      "EchoTime": 20.0,
      "EchoTrainLength": 1,
      "FlipAngle": 80.0,
      "HighBit": 11,
      "ImageOrientationPatient": [0.99988741240995, 0.01330505841103, -0.0069381499565, -0.0100260278566, 0.24836453586965, -0.9686147511202],
      "ImagePositionPatient": [-714.51441163638, -230.11046012075, 686.21640408658],
      "ImageType": [
        "ORIGINAL",
        "PRIMARY",
        "M",
        "MB",
        "ND",
        "MOSAIC"
],
      "ImagedNucleus": "1H",
      "ImagingFrequency": 297.205429,
      "InPlanePhaseEncodingDirection": "COL",
      "LargestImagePixelValue": 4095,
      "MRAcquisitionType": "2D",
      "MagneticFieldStrength": 6.98,
      "Manufacturer": "SIEMENS",
      "ManufacturerModelName": "Investigational_Device_7T",
      "Modality": "MR",
      "NumberOfAverages": 1.0,
      "NumberOfPhaseEncodingSteps": 141,
      "PercentPhaseFieldOfView": 100.0,
      "PercentSampling": 100.0,
      "PerformedProcedureStepStartTime": "161528.218000",
      "PhotometricInterpretation": "MONOCHROME2",
      "PixelBandwidth": 1400.0,
      "PixelRepresentation": 0,
      "PixelSpacing": [1.0957447290421, 1.0957447290421],
      "ProtocolName": "cmrr_mbep2d_bold_AP_run7",
      "RepetitionTime": 2600.0,
      "Rows": 1316,
      "SAR": 0.06393695428211,
      "SamplesPerPixel": 1,
      "ScanOptions": [
        "PFP",
        "FS"
],
      "ScanningSequence": "EP",
      "SequenceName": "epfid2d1_188",
      "SequenceVariant": [
        "SK",
        "SS"
],
      "SeriesDescription": "cmrr_mbep2d_bold_AP_run7",
      "SeriesNumber": 17,
      "SeriesTime": "175700.140000",
      "SliceLocation": -44.398086378124,
      "SliceThickness": 1.1000000238419,
      "SmallestImagePixelValue": 0,
      "SoftwareVersions": "syngo MR B17",
      "SpacingBetweenSlices": 1.1000000381174,
      "SpecificCharacterSet": "ISO_IR 100",
      "StudyID": "1",
      "StudyTime": "161528.171000",
      "TransmitCoilName": "32Ch_Head_7T",
      "VariableFlipAngleFlag": "N",
      "WindowCenterWidthExplanation": "Algo1",
      "dBdt": 0.0},
    "slices": {}
  },
  "time": {
    "samples": {
      "AcquisitionNumber": [1, 2, 3, 4, 5, 6, 7, 8, 9, 10, 11, 12, 13, 14, 15, 16, 17, 18, 19, 20, 21, 22, 23, 24, 25, 26, 27, 28, 29, 30, 31, 32, 33, 34, 35, 36, 37, 38, 39, 40, 41, 42, 43, 44, 45, 46, 47, 48, 49, 50, 51, 52, 53, 54, 55, 56, 57, 58, 59, 60, 61, 62, 63, 64, 65, 66, 67, 68, 69, 70, 71, 72, 73, 74, 75, 76, 77, 78, 79, 80, 81, 82, 83, 84, 85, 86, 87, 88, 89, 90, 91, 92, 93, 94, 95, 96, 97, 98, 99, 100, 101, 102, 103, 104, 105, 106, 107, 108, 109, 110, 111, 112, 113, 114, 115, 116, 117, 118, 119, 120, 121, 122, 123, 124, 125, 126, 127, 128, 129, 130, 131, 132, 133, 134, 135, 136, 137, 138, 139, 140, 141, 142, 143, 144, 145, 146, 147, 148, 149, 150, 151, 152, 153, 154, 155, 156, 157, 158, 159, 160, 161, 162, 163, 164, 165, 166, 167, 168, 169, 170, 171, 172, 173, 174, 175, 176, 177, 178, 179, 180, 181, 182, 183, 184, 185, 186, 187, 188, 189, 190, 191, 192, 193, 194, 195, 196, 197, 198, 199, 200, 201, 202, 203, 204, 205, 206, 207, 208, 209, 210, 211, 212, 213, 214, 215, 216, 217, 218],
      "AcquisitionTime": ["175605.177500", "175607.787500", "175610.397500", "175613.010000", "175615.620000", "175618.230000", "175620.840000", "175623.450000", "175626.060000", "175628.672500", "175631.282500", "175633.892500", "175636.502500", "175639.112500", "175641.722500", "175644.335000", "175646.945000", "175649.555000", "175652.165000", "175654.775000", "175657.387500", "175659.997500", "175702.607500", "175705.217500", "175707.827500", "175710.437500", "175713.050000", "175715.660000", "175718.270000", "175720.880000", "175723.490000", "175726.102500", "175728.712500", "175731.322500", "175733.932500", "175736.542500", "175739.152500", "175741.765000", "175744.375000", "175746.985000", "175749.595000", "175752.205000", "175754.815000", "175757.427500", "175800.037500", "175802.647500", "175805.257500", "175807.867500", "175810.480000", "175813.090000", "175815.700000", "175818.310000", "175820.920000", "175823.530000", "175826.142500", "175828.752500", "175831.362500", "175833.972500", "175836.582500", "175839.192500", "175841.805000", "175844.415000", "175847.025000", "175849.635000", "175852.245000", "175854.857500", "175857.467500", "175900.077500", "175902.687500", "175905.297500", "175907.907500", "175910.520000", "175913.130000", "175915.740000", "175918.350000", "175920.960000", "175923.570000", "175926.182500", "175928.792500", "175931.402500", "175934.012500", "175936.622500", "175939.235000", "175941.845000", "175944.455000", "175947.065000", "175949.675000", "175952.285000", "175954.897500", "175957.507500", "180000.117500", "180002.727500", "180005.337500", "180007.947500", "180010.560000", "180013.170000", "180015.780000", "180018.390000", "180021.000000", "180023.612500", "180026.222500", "180028.832500", "180031.442500", "180034.052500", "180036.662500", "180039.275000", "180041.885000", "180044.495000", "180047.105000", "180049.715000", "180052.325000", "180054.937500", "180057.547500", "180100.157500", "180102.767500", "180105.377500", "180107.990000", "180110.600000", "180113.210000", "180115.820000", "180118.430000", "180121.040000", "180123.652500", "180126.262500", "180128.872500", "180131.482500", "180134.092500", "180136.702500", "180139.315000", "180141.925000", "180144.535000", "180147.145000", "180149.755000", "180152.367500", "180154.977500", "180157.587500", "180200.197500", "180202.807500", "180205.417500", "180208.030000", "180210.640000", "180213.250000", "180215.860000", "180218.470000", "180221.080000", "180223.692500", "180226.302500", "180228.912500", "180231.522500", "180234.132500", "180236.745000", "180239.355000", "180241.965000", "180244.575000", "180247.185000", "180249.795000", "180252.407500", "180255.017500", "180257.627500", "180300.237500", "180302.847500", "180305.457500", "180308.070000", "180310.680000", "180313.290000", "180315.900000", "180318.510000", "180321.122500", "180323.732500", "180326.342500", "180328.952500", "180331.562500", "180334.172500", "180336.785000", "180339.395000", "180342.005000", "180344.615000", "180347.225000", "180349.835000", "180352.447500", "180355.057500", "180357.667500", "180400.277500", "180402.887500", "180405.500000", "180408.110000", "180410.720000", "180413.330000", "180415.940000", "180418.550000", "180421.162500", "180423.772500", "180426.382500", "180428.992500", "180431.602500", "180434.212500", "180436.825000", "180439.435000", "180442.045000", "180444.655000", "180447.265000", "180449.877500", "180452.487500", "180455.097500", "180457.707500", "180500.317500", "180502.927500", "180505.540000", "180508.150000", "180510.760000", "180513.370000", "180515.980000", "180518.590000", "180521.202500", "180523.812500", "180526.422500", "180529.032500", "180531.642500"],
      "ContentTime": ["175700.140000", "175700.140000", "175700.140000", "175700.140000", "175700.140000", "175700.156000", "175700.156000", "175700.156000", "175700.156000", "175700.171000", "175700.171000", "175700.171000", "175700.171000", "175700.171000", "175700.187000", "175700.187000", "175700.187000", "175700.187000", "175700.187000", "175700.187000", "175800.125000", "175800.140000", "175800.140000", "175800.140000", "175800.140000", "175800.140000", "175800.140000", "175800.140000", "175800.156000", "175800.156000", "175800.156000", "175800.156000", "175800.156000", "175800.171000", "175800.171000", "175800.171000", "175800.171000", "175800.171000", "175800.171000", "175800.171000", "175800.171000", "175800.187000", "175800.187000", "175900.125000", "175900.125000", "175900.140000", "175900.140000", "175900.140000", "175900.140000", "175900.140000", "175900.140000", "175900.140000", "175900.156000", "175900.156000", "175900.156000", "175900.156000", "175900.171000", "175900.171000", "175900.171000", "175900.171000", "175900.171000", "175900.171000", "175900.171000", "175900.187000", "175900.187000", "175900.187000", "180000.125000", "180000.125000", "180000.140000", "180000.140000", "180000.140000", "180000.140000", "180000.140000", "180000.156000", "180000.156000", "180000.156000", "180000.156000", "180000.156000", "180000.156000", "180000.156000", "180000.171000", "180000.171000", "180000.171000", "180000.171000", "180000.187000", "180000.187000", "180000.187000", "180000.187000", "180000.187000", "180100.125000", "180100.140000", "180100.140000", "180100.140000", "180100.140000", "180100.140000", "180100.156000", "180100.156000", "180100.156000", "180100.156000", "180100.156000", "180100.156000", "180100.156000", "180100.171000", "180100.171000", "180100.171000", "180100.171000", "180100.171000", "180100.187000", "180100.187000", "180100.187000", "180100.187000", "180100.187000", "180140.125000", "180140.140000", "180140.140000", "180140.140000", "180140.140000", "180140.140000", "180140.140000", "180140.140000", "180140.156000", "180140.156000", "180140.156000", "180140.156000", "180140.156000", "180140.156000", "180140.156000", "180140.156000", "180240.125000", "180240.140000", "180240.140000", "180240.140000", "180240.140000", "180240.140000", "180240.140000", "180240.140000", "180240.156000", "180240.156000", "180240.156000", "180240.156000", "180240.156000", "180240.156000", "180240.156000", "180240.171000", "180240.171000", "180240.171000", "180240.171000", "180240.171000", "180240.171000", "180240.171000", "180240.187000", "180340.125000", "180340.125000", "180340.140000", "180340.140000", "180340.140000", "180340.140000", "180340.140000", "180340.156000", "180340.156000", "180340.171000", "180340.171000", "180340.171000", "180340.171000", "180340.171000", "180340.171000", "180340.171000", "180340.187000", "180340.187000", "180340.187000", "180340.187000", "180340.187000", "180340.187000", "180340.187000", "180440.125000", "180440.140000", "180440.140000", "180440.140000", "180440.140000", "180440.140000", "180440.140000", "180440.156000", "180440.156000", "180440.156000", "180440.156000", "180440.156000", "180440.171000", "180440.171000", "180440.171000", "180440.171000", "180440.171000", "180440.171000", "180440.187000", "180440.187000", "180440.187000", "180440.187000", "180440.187000", "180538.312000", "180538.312000", "180538.328000", "180538.328000", "180538.328000", "180538.328000", "180538.328000", "180538.328000", "180538.343000", "180538.343000", "180538.343000", "180538.343000", "180538.343000", "180538.343000", "180538.343000", "180538.359000", "180538.359000", "180538.359000", "180538.359000", "180538.359000", "180538.375000"],
      "InstanceCreationTime": ["175700.140000", "175700.140000", "175700.140000", "175700.140000", "175700.140000", "175700.156000", "175700.156000", "175700.156000", "175700.156000", "175700.171000", "175700.171000", "175700.171000", "175700.171000", "175700.171000", "175700.187000", "175700.187000", "175700.187000", "175700.187000", "175700.187000", "175700.187000", "175800.125000", "175800.140000", "175800.140000", "175800.140000", "175800.140000", "175800.140000", "175800.140000", "175800.140000", "175800.156000", "175800.156000", "175800.156000", "175800.156000", "175800.156000", "175800.171000", "175800.171000", "175800.171000", "175800.171000", "175800.171000", "175800.171000", "175800.171000", "175800.171000", "175800.187000", "175800.187000", "175900.125000", "175900.125000", "175900.140000", "175900.140000", "175900.140000", "175900.140000", "175900.140000", "175900.140000", "175900.140000", "175900.156000", "175900.156000", "175900.156000", "175900.156000", "175900.171000", "175900.171000", "175900.171000", "175900.171000", "175900.171000", "175900.171000", "175900.171000", "175900.187000", "175900.187000", "175900.187000", "180000.125000", "180000.125000", "180000.140000", "180000.140000", "180000.140000", "180000.140000", "180000.140000", "180000.156000", "180000.156000", "180000.156000", "180000.156000", "180000.156000", "180000.156000", "180000.156000", "180000.171000", "180000.171000", "180000.171000", "180000.171000", "180000.187000", "180000.187000", "180000.187000", "180000.187000", "180000.187000", "180100.125000", "180100.140000", "180100.140000", "180100.140000", "180100.140000", "180100.140000", "180100.156000", "180100.156000", "180100.156000", "180100.156000", "180100.156000", "180100.156000", "180100.156000", "180100.171000", "180100.171000", "180100.171000", "180100.171000", "180100.171000", "180100.187000", "180100.187000", "180100.187000", "180100.187000", "180100.187000", "180140.125000", "180140.140000", "180140.140000", "180140.140000", "180140.140000", "180140.140000", "180140.140000", "180140.140000", "180140.156000", "180140.156000", "180140.156000", "180140.156000", "180140.156000", "180140.156000", "180140.156000", "180140.156000", "180240.125000", "180240.140000", "180240.140000", "180240.140000", "180240.140000", "180240.140000", "180240.140000", "180240.140000", "180240.156000", "180240.156000", "180240.156000", "180240.156000", "180240.156000", "180240.156000", "180240.156000", "180240.171000", "180240.171000", "180240.171000", "180240.171000", "180240.171000", "180240.171000", "180240.171000", "180240.187000", "180340.125000", "180340.125000", "180340.140000", "180340.140000", "180340.140000", "180340.140000", "180340.140000", "180340.156000", "180340.156000", "180340.171000", "180340.171000", "180340.171000", "180340.171000", "180340.171000", "180340.171000", "180340.171000", "180340.187000", "180340.187000", "180340.187000", "180340.187000", "180340.187000", "180340.187000", "180340.187000", "180440.125000", "180440.140000", "180440.140000", "180440.140000", "180440.140000", "180440.140000", "180440.140000", "180440.156000", "180440.156000", "180440.156000", "180440.156000", "180440.156000", "180440.171000", "180440.171000", "180440.171000", "180440.171000", "180440.171000", "180440.171000", "180440.187000", "180440.187000", "180440.187000", "180440.187000", "180440.187000", "180538.312000", "180538.312000", "180538.328000", "180538.328000", "180538.328000", "180538.328000", "180538.328000", "180538.328000", "180538.343000", "180538.343000", "180538.343000", "180538.343000", "180538.343000", "180538.343000", "180538.343000", "180538.359000", "180538.359000", "180538.359000", "180538.359000", "180538.359000", "180538.375000"],
      "InstanceNumber": [1, 2, 3, 4, 5, 6, 7, 8, 9, 10, 11, 12, 13, 14, 15, 16, 17, 18, 19, 20, 21, 22, 23, 24, 25, 26, 27, 28, 29, 30, 31, 32, 33, 34, 35, 36, 37, 38, 39, 40, 41, 42, 43, 44, 45, 46, 47, 48, 49, 50, 51, 52, 53, 54, 55, 56, 57, 58, 59, 60, 61, 62, 63, 64, 65, 66, 67, 68, 69, 70, 71, 72, 73, 74, 75, 76, 77, 78, 79, 80, 81, 82, 83, 84, 85, 86, 87, 88, 89, 90, 91, 92, 93, 94, 95, 96, 97, 98, 99, 100, 101, 102, 103, 104, 105, 106, 107, 108, 109, 110, 111, 112, 113, 114, 115, 116, 117, 118, 119, 120, 121, 122, 123, 124, 125, 126, 127, 128, 129, 130, 131, 132, 133, 134, 135, 136, 137, 138, 139, 140, 141, 142, 143, 144, 145, 146, 147, 148, 149, 150, 151, 152, 153, 154, 155, 156, 157, 158, 159, 160, 161, 162, 163, 164, 165, 166, 167, 168, 169, 170, 171, 172, 173, 174, 175, 176, 177, 178, 179, 180, 181, 182, 183, 184, 185, 186, 187, 188, 189, 190, 191, 192, 193, 194, 195, 196, 197, 198, 199, 200, 201, 202, 203, 204, 205, 206, 207, 208, 209, 210, 211, 212, 213, 214, 215, 216, 217, 218],
      "WindowCenter": [964.0, 958.0, 953.0, 961.0, 962.0, 960.0, 962.0, 959.0, 957.0, 960.0, 961.0, 959.0, 957.0, 958.0, 959.0, 957.0, 959.0, 959.0, 958.0, 959.0, 958.0, 957.0, 960.0, 957.0, 958.0, 960.0, 958.0, 957.0, 958.0, 958.0, 957.0, 957.0, 959.0, 959.0, 957.0, 959.0, 958.0, 958.0, 960.0, 960.0, 957.0, 960.0, 960.0, 956.0, 959.0, 959.0, 956.0, 961.0, 963.0, 957.0, 957.0, 962.0, 959.0, 958.0, 960.0, 959.0, 958.0, 961.0, 959.0, 959.0, 961.0, 959.0, 959.0, 957.0, 959.0, 959.0, 959.0, 959.0, 960.0, 958.0, 960.0, 961.0, 958.0, 957.0, 959.0, 961.0, 957.0, 959.0, 958.0, 957.0, 959.0, 958.0, 959.0, 959.0, 958.0, 962.0, 960.0, 961.0, 961.0, 962.0, 958.0, 961.0, 962.0, 959.0, 958.0, 959.0, 958.0, 959.0, 958.0, 956.0, 959.0, 960.0, 960.0, 960.0, 959.0, 960.0, 959.0, 959.0, 960.0, 959.0, 958.0, 959.0, 959.0, 957.0, 960.0, 961.0, 958.0, 959.0, 960.0, 957.0, 959.0, 959.0, 957.0, 960.0, 963.0, 960.0, 958.0, 960.0, 959.0, 960.0, 960.0, 957.0, 958.0, 959.0, 957.0, 960.0, 957.0, 958.0, 961.0, 958.0, 959.0, 959.0, 958.0, 957.0, 961.0, 960.0, 959.0, 960.0, 959.0, 959.0, 964.0, 959.0, 957.0, 958.0, 960.0, 957.0, 958.0, 961.0, 959.0, 960.0, 960.0, 959.0, 958.0, 961.0, 960.0, 962.0, 961.0, 962.0, 961.0, 962.0, 961.0, 961.0, 964.0, 960.0, 961.0, 962.0, 963.0, 961.0, 961.0, 964.0, 960.0, 962.0, 963.0, 959.0, 964.0, 962.0, 962.0, 963.0, 961.0, 961.0, 964.0, 963.0, 961.0, 963.0, 962.0, 962.0, 962.0, 962.0, 962.0, 959.0, 965.0, 964.0, 964.0, 965.0, 964.0, 964.0, 962.0, 962.0, 964.0, 963.0, 964.0, 963.0, 963.0, 963.0, 963.0, 963.0, 962.0, 967.0],
      "WindowWidth": [2195.0, 2180.0, 2167.0, 2190.0, 2191.0, 2186.0, 2192.0, 2185.0, 2178.0, 2188.0, 2189.0, 2182.0, 2177.0, 2183.0, 2182.0, 2178.0, 2185.0, 2184.0, 2180.0, 2183.0, 2179.0, 2180.0, 2188.0, 2179.0, 2182.0, 2188.0, 2182.0, 2179.0, 2184.0, 2182.0, 2179.0, 2180.0, 2187.0, 2183.0, 2179.0, 2186.0, 2184.0, 2184.0, 2189.0, 2189.0, 2179.0, 2190.0, 2187.0, 2177.0, 2188.0, 2185.0, 2178.0, 2191.0, 2195.0, 2179.0, 2180.0, 2195.0, 2184.0, 2183.0, 2188.0, 2185.0, 2182.0, 2190.0, 2185.0, 2185.0, 2191.0, 2185.0, 2183.0, 2179.0, 2184.0, 2183.0, 2185.0, 2186.0, 2188.0, 2185.0, 2188.0, 2192.0, 2181.0, 2180.0, 2188.0, 2190.0, 2180.0, 2185.0, 2182.0, 2178.0, 2185.0, 2181.0, 2185.0, 2184.0, 2183.0, 2193.0, 2187.0, 2191.0, 2190.0, 2192.0, 2181.0, 2190.0, 2193.0, 2185.0, 2182.0, 2184.0, 2182.0, 2184.0, 2182.0, 2177.0, 2184.0, 2188.0, 2188.0, 2187.0, 2186.0, 2188.0, 2186.0, 2186.0, 2188.0, 2184.0, 2180.0, 2186.0, 2186.0, 2180.0, 2188.0, 2189.0, 2182.0, 2186.0, 2187.0, 2180.0, 2186.0, 2184.0, 2180.0, 2189.0, 2198.0, 2188.0, 2182.0, 2189.0, 2184.0, 2188.0, 2188.0, 2177.0, 2183.0, 2183.0, 2181.0, 2187.0, 2178.0, 2184.0, 2191.0, 2180.0, 2185.0, 2186.0, 2181.0, 2179.0, 2192.0, 2187.0, 2184.0, 2188.0, 2185.0, 2187.0, 2201.0, 2183.0, 2181.0, 2184.0, 2188.0, 2178.0, 2184.0, 2190.0, 2185.0, 2189.0, 2188.0, 2185.0, 2182.0, 2191.0, 2189.0, 2194.0, 2191.0, 2193.0, 2191.0, 2193.0, 2191.0, 2191.0, 2199.0, 2187.0, 2193.0, 2194.0, 2196.0, 2190.0, 2192.0, 2198.0, 2186.0, 2195.0, 2195.0, 2182.0, 2199.0, 2192.0, 2194.0, 2196.0, 2188.0, 2190.0, 2200.0, 2196.0, 2191.0, 2197.0, 2193.0, 2193.0, 2194.0, 2192.0, 2194.0, 2187.0, 2203.0, 2198.0, 2200.0, 2201.0, 2200.0, 2198.0, 2193.0, 2193.0, 2199.0, 2194.0, 2198.0, 2195.0, 2197.0, 2196.0, 2195.0, 2195.0, 2194.0, 2206.0]
    },
    "slices": {}
  }
}