{
  "AcquisitionMatrixPE": 188,
  "AcquisitionNumber": 1,
  "AcquisitionTime": "16:49:24.145000",
  "BandwidthPerPixelPhaseEncode": 19.46,
  "BaseResolution": 188,
  "ConversionSoftware": "dcm2niix",
  "ConversionSoftwareVersion": "v1.0.20180606 GCC4.8.5",
  "DelayTime": 1.2,
  "DerivedVendorReportedEchoSpacing": 0.000820013,
  "DeviceSerialNumber": "18930",
  "DwellTime": 1.9e-06,
  "EchoTime": 0.02,
  "EffectiveEchoSpacing": 0.000273338,
  "FlipAngle": 80,
  "ImageComments": "Unaliased_MB2_PE2",
  "ImageOrientationPatientDICOM": [0.999887, 0.0133051, -0.00693815, -0.010026, 0.248365, -0.968615],
  "ImageType": [
    "ORIGINAL",
    "PRIMARY",
    "M",
    "MB",
    "ND",
    "MOSAIC"
],
  "InPlanePhaseEncodingDirectionDICOM": "COL",
  "InstitutionAddress": "Oxfordlaan_55_Maastricht_Limburg_NL_6229_EV",
  "InstitutionName": "Scannexus",
  "InstitutionalDepartmentName": "MRI_7T",
  "MRAcquisitionType": "2D",
  "MagneticFieldStrength": 6.98,
  "Manufacturer": "Siemens",
  "ManufacturersModelName": "Investigational_Device_7T",
  "Modality": "MR",
  "MultibandAccelerationFactor": 2,
  "ParallelReductionFactorInPlane": 3,
  "PartialFourier": 0.75,
  "PatientPosition": "HFS",
  "PercentPhaseFOV": 100,
  "PhaseEncodingDirection": "j",
  "PhaseEncodingSteps": 141,
  "PhaseResolution": 1,
  "PixelBandwidth": 1400,
  "ProcedureStepDescription": "FeDem_Faruk",
  "ProtocolName": "cmrr_mbep2d_bold_AP_run1",
  "PulseSequenceDetails": "%CustomerSeq%_cmrr_mbep2d_bold",
  "ReceiveCoilName": "32Ch_Head_7T",
  "ReconMatrixPE": 188,
  "RepetitionTime": 2.6,
  "SAR": 0.0635375,
  "ScanOptions": "PFP_FS",
  "ScanningSequence": "EP",
  "SequenceName": "epfid2d1_188",
  "SequenceVariant": "SK_SS",
  "SeriesDescription": "cmrr_mbep2d_bold_AP_run1",
  "SeriesNumber": 11,
  "ShimSetting": [118, -208, 551, 585, 8, -215, -51, 92],
  "SliceThickness": 1.1,
  "SliceTiming": [0, 0.7325, 0.06, 0.795, 0.1225, 0.855, 0.1825, 0.9175, 0.245, 0.9775, 0.305, 1.0375, 0.3675, 1.1, 0.4275, 1.16, 0.4875, 1.2225, 0.55, 1.2825, 0.61, 1.345, 0.6725, 0, 0.7325, 0.06, 0.795, 0.1225, 0.855, 0.1825, 0.9175, 0.245, 0.9775, 0.305, 1.0375, 0.3675, 1.1, 0.4275, 1.16, 0.4875, 1.2225, 0.55, 1.2825, 0.61, 1.345, 0.6725],
  "SoftwareVersions": "syngo_MR_B17",
  "SpacingBetweenSlices": 1.1,
  "StationName": "MRC18930",
  "TaskName": "auditory",
  "TotalReadoutTime": 0.0511141,
  "TxRefAmp": 250,
  "dcmmeta_affine": [
    [-1.0956213474273682, -0.01098596677184105, 0.012280714698135853, 104.83442687988281],
    [-0.01457894779741764, 0.2721441388130188, -1.0654327869415283, 17.5076904296875],
    [-0.0076024411246180534, 1.0613545179367065, 0.27331697940826416, -115.14860534667969],
    [0.0, 0.0, 0.0, 1.0]
],
  "dcmmeta_reorient_transform": [
    [0.0, -1.0, 0.0, 187.0],
    [1.0, 0.0, 0.0, 0.0],
    [0.0, 0.0, 1.0, 0.0],
    [0.0, 0.0, 0.0, 1.0]
],
  "dcmmeta_shape": [188, 188, 46, 218],
  "dcmmeta_slice_dim": 2,
  "dcmmeta_version": 0.6,
  "global": {
    "const": {
      "AcquisitionMatrix": [188, 0, 0, 188],
      "AngioFlag": "N",
      "BitsAllocated": 16,
      "BitsStored": 12,
      "Columns": 1316,
      "EchoNumbers": 1,
      "EchoTime": 20.0,
      "EchoTrainLength": 1,
      "FlipAngle": 80.0,
      "HighBit": 11,
      "ImageOrientationPatient": [0.99988741240995, 0.01330505841103, -0.0069381499565, -0.0100260278566, 0.24836453586965, -0.9686147511202],
      "ImagePositionPatient": [-714.51441163638, -230.11046012075, 686.21640408658],
      "ImageType": [
        "ORIGINAL",
        "PRIMARY",
        "M",
        "MB",
        "ND",
        "MOSAIC"
],
      "ImagedNucleus": "1H",
      "ImagingFrequency": 297.205405,
      "InPlanePhaseEncodingDirection": "COL",
      "LargestImagePixelValue": 4095,
      "MRAcquisitionType": "2D",
      "MagneticFieldStrength": 6.98,
      "Manufacturer": "SIEMENS",
      "ManufacturerModelName": "Investigational_Device_7T",
      "Modality": "MR",
      "NumberOfAverages": 1.0,
      "NumberOfPhaseEncodingSteps": 141,
      "PercentPhaseFieldOfView": 100.0,
      "PercentSampling": 100.0,
      "PerformedProcedureStepStartTime": "161528.218000",
      "PhotometricInterpretation": "MONOCHROME2",
      "PixelBandwidth": 1400.0,
      "PixelRepresentation": 0,
      "PixelSpacing": [1.0957447290421, 1.0957447290421],
      "ProtocolName": "cmrr_mbep2d_bold_AP_run1",
      "RepetitionTime": 2600.0,
      "Rows": 1316,
      "SAR": 0.06353749647515,
      "SamplesPerPixel": 1,
      "ScanOptions": [
        "PFP",
        "FS"
],
      "ScanningSequence": "EP",
      "SequenceName": "epfid2d1_188",
      "SequenceVariant": [
        "SK",
        "SS"
],
      "SeriesDescription": "cmrr_mbep2d_bold_AP_run1",
      "SeriesNumber": 11,
      "SeriesTime": "165020.140000",
      "SliceLocation": -44.398086378124,
      "SliceThickness": 1.1000000238419,
      "SmallestImagePixelValue": 0,
      "SoftwareVersions": "syngo MR B17",
      "SpacingBetweenSlices": 1.1000000381174,
      "SpecificCharacterSet": "ISO_IR 100",
      "StudyID": "1",
      "StudyTime": "161528.171000",
      "TransmitCoilName": "32Ch_Head_7T",
      "VariableFlipAngleFlag": "N",
      "WindowCenterWidthExplanation": "Algo1",
      "dBdt": 0.0},
    "slices": {}
  },
  "time": {
    "samples": {
      "AcquisitionNumber": [1, 2, 3, 4, 5, 6, 7, 8, 9, 10, 11, 12, 13, 14, 15, 16, 17, 18, 19, 20, 21, 22, 23, 24, 25, 26, 27, 28, 29, 30, 31, 32, 33, 34, 35, 36, 37, 38, 39, 40, 41, 42, 43, 44, 45, 46, 47, 48, 49, 50, 51, 52, 53, 54, 55, 56, 57, 58, 59, 60, 61, 62, 63, 64, 65, 66, 67, 68, 69, 70, 71, 72, 73, 74, 75, 76, 77, 78, 79, 80, 81, 82, 83, 84, 85, 86, 87, 88, 89, 90, 91, 92, 93, 94, 95, 96, 97, 98, 99, 100, 101, 102, 103, 104, 105, 106, 107, 108, 109, 110, 111, 112, 113, 114, 115, 116, 117, 118, 119, 120, 121, 122, 123, 124, 125, 126, 127, 128, 129, 130, 131, 132, 133, 134, 135, 136, 137, 138, 139, 140, 141, 142, 143, 144, 145, 146, 147, 148, 149, 150, 151, 152, 153, 154, 155, 156, 157, 158, 159, 160, 161, 162, 163, 164, 165, 166, 167, 168, 169, 170, 171, 172, 173, 174, 175, 176, 177, 178, 179, 180, 181, 182, 183, 184, 185, 186, 187, 188, 189, 190, 191, 192, 193, 194, 195, 196, 197, 198, 199, 200, 201, 202, 203, 204, 205, 206, 207, 208, 209, 210, 211, 212, 213, 214, 215, 216, 217, 218],
      "AcquisitionTime": ["164924.145000", "164926.755000", "164929.365000", "164931.975000", "164934.587500", "164937.197500", "164939.807500", "164942.417500", "164945.027500", "164947.640000", "164950.250000", "164952.860000", "164955.470000", "164958.080000", "165000.690000", "165003.302500", "165005.912500", "165008.522500", "165011.132500", "165013.742500", "165016.352500", "165018.965000", "165021.575000", "165024.185000", "165026.795000", "165029.405000", "165032.017500", "165034.627500", "165037.237500", "165039.847500", "165042.457500", "165045.067500", "165047.680000", "165050.290000", "165052.900000", "165055.510000", "165058.120000", "165100.730000", "165103.342500", "165105.952500", "165108.562500", "165111.172500", "165113.782500", "165116.395000", "165119.005000", "165121.615000", "165124.225000", "165126.835000", "165129.445000", "165132.057500", "165134.667500", "165137.277500", "165139.887500", "165142.497500", "165145.107500", "165147.720000", "165150.330000", "165152.940000", "165155.550000", "165158.160000", "165200.772500", "165203.382500", "165205.992500", "165208.602500", "165211.212500", "165213.822500", "165216.435000", "165219.045000", "165221.655000", "165224.265000", "165226.875000", "165229.485000", "165232.097500", "165234.707500", "165237.317500", "165239.927500", "165242.537500", "165245.150000", "165247.760000", "165250.370000", "165252.980000", "165255.590000", "165258.200000", "165300.812500", "165303.422500", "165306.032500", "165308.642500", "165311.252500", "165313.862500", "165316.475000", "165319.085000", "165321.695000", "165324.305000", "165326.915000", "165329.527500", "165332.137500", "165334.747500", "165337.357500", "165339.967500", "165342.577500", "165345.190000", "165347.800000", "165350.410000", "165353.020000", "165355.630000", "165358.240000", "165400.852500", "165403.462500", "165406.072500", "165408.682500", "165411.292500", "165413.905000", "165416.515000", "165419.125000", "165421.735000", "165424.345000", "165426.955000", "165429.567500", "165432.177500", "165434.787500", "165437.397500", "165440.007500", "165442.617500", "165445.230000", "165447.840000", "165450.450000", "165453.060000", "165455.670000", "165458.282500", "165500.892500", "165503.502500", "165506.112500", "165508.722500", "165511.332500", "165513.945000", "165516.555000", "165519.165000", "165521.775000", "165524.385000", "165526.995000", "165529.607500", "165532.217500", "165534.827500", "165537.437500", "165540.047500", "165542.660000", "165545.270000", "165547.880000", "165550.490000", "165553.100000", "165555.710000", "165558.322500", "165600.932500", "165603.542500", "165606.152500", "165608.762500", "165611.372500", "165613.985000", "165616.595000", "165619.205000", "165621.815000", "165624.425000", "165627.037500", "165629.647500", "165632.257500", "165634.867500", "165637.477500", "165640.087500", "165642.700000", "165645.310000", "165647.920000", "165650.530000", "165653.140000", "165655.752500", "165658.362500", "165700.972500", "165703.582500", "165706.192500", "165708.802500", "165711.415000", "165714.025000", "165716.635000", "165719.245000", "165721.855000", "165724.465000", "165727.077500", "165729.687500", "165732.297500", "165734.907500", "165737.517500", "165740.130000", "165742.740000", "165745.350000", "165747.960000", "165750.570000", "165753.180000", "165755.792500", "165758.402500", "165801.012500", "165803.622500", "165806.232500", "165808.842500", "165811.455000", "165814.065000", "165816.675000", "165819.285000", "165821.895000", "165824.507500", "165827.117500", "165829.727500", "165832.337500", "165834.947500", "165837.557500", "165840.170000", "165842.780000", "165845.390000", "165848.000000", "165850.610000"],
      "ContentTime": ["165020.140000", "165020.140000", "165020.140000", "165020.140000", "165020.140000", "165020.156000", "165020.156000", "165020.171000", "165020.171000", "165020.171000", "165020.171000", "165020.171000", "165020.171000", "165020.171000", "165020.187000", "165020.187000", "165020.187000", "165020.187000", "165020.187000", "165020.187000", "165020.187000", "165120.125000", "165120.140000", "165120.140000", "165120.140000", "165120.140000", "165120.140000", "165120.140000", "165120.140000", "165120.156000", "165120.156000", "165120.156000", "165120.156000", "165120.156000", "165120.156000", "165120.156000", "165120.171000", "165120.171000", "165120.171000", "165120.171000", "165120.171000", "165120.187000", "165120.187000", "165120.187000", "165140.125000", "165140.140000", "165140.140000", "165140.140000", "165140.156000", "165140.156000", "165140.156000", "165240.125000", "165240.140000", "165240.156000", "165240.156000", "165240.156000", "165240.156000", "165240.156000", "165240.156000", "165240.156000", "165240.171000", "165240.171000", "165240.171000", "165240.171000", "165240.171000", "165240.171000", "165240.187000", "165240.187000", "165240.187000", "165240.187000", "165240.187000", "165240.187000", "165240.187000", "165240.203000", "165340.125000", "165340.156000", "165340.171000", "165340.171000", "165340.171000", "165340.171000", "165340.171000", "165340.171000", "165340.171000", "165340.187000", "165340.187000", "165340.187000", "165340.187000", "165340.187000", "165340.187000", "165340.187000", "165340.203000", "165340.203000", "165340.203000", "165340.203000", "165340.203000", "165340.203000", "165340.203000", "165440.125000", "165440.140000", "165440.140000", "165440.140000", "165440.140000", "165440.140000", "165440.140000", "165440.140000", "165440.156000", "165440.156000", "165440.156000", "165440.156000", "165440.156000", "165440.156000", "165440.156000", "165440.171000", "165440.171000", "165440.171000", "165440.187000", "165440.187000", "165440.187000", "165440.187000", "165440.187000", "165440.187000", "165540.125000", "165540.140000", "165540.140000", "165540.140000", "165540.140000", "165540.140000", "165540.156000", "165540.156000", "165540.156000", "165540.156000", "165540.156000", "165540.156000", "165540.171000", "165540.171000", "165540.171000", "165540.171000", "165540.171000", "165540.171000", "165540.171000", "165540.187000", "165540.187000", "165540.187000", "165540.187000", "165640.125000", "165640.140000", "165640.140000", "165640.140000", "165640.140000", "165640.140000", "165640.140000", "165640.140000", "165640.156000", "165640.156000", "165640.156000", "165640.156000", "165640.156000", "165640.156000", "165640.171000", "165640.171000", "165640.171000", "165640.187000", "165640.187000", "165640.187000", "165640.187000", "165640.187000", "165640.187000", "165740.125000", "165740.140000", "165740.140000", "165740.140000", "165740.140000", "165740.140000", "165740.140000", "165740.140000", "165740.156000", "165740.156000", "165740.156000", "165740.156000", "165740.156000", "165740.156000", "165740.156000", "165740.171000", "165740.171000", "165740.171000", "165740.171000", "165740.171000", "165740.171000", "165740.171000", "165740.171000", "165840.125000", "165840.140000", "165840.140000", "165840.140000", "165840.140000", "165840.156000", "165840.156000", "165840.156000", "165840.171000", "165840.171000", "165840.171000", "165840.171000", "165840.171000", "165840.171000", "165840.171000", "165840.171000", "165840.187000", "165840.187000", "165840.187000", "165840.187000", "165840.187000", "165840.187000", "165840.187000", "165853.390000", "165853.390000", "165853.390000", "165853.406000", "165853.406000"],
      "InstanceCreationTime": ["165020.140000", "165020.140000", "165020.140000", "165020.140000", "165020.140000", "165020.156000", "165020.156000", "165020.171000", "165020.171000", "165020.171000", "165020.171000", "165020.171000", "165020.171000", "165020.171000", "165020.187000", "165020.187000", "165020.187000", "165020.187000", "165020.187000", "165020.187000", "165020.187000", "165120.125000", "165120.140000", "165120.140000", "165120.140000", "165120.140000", "165120.140000", "165120.140000", "165120.140000", "165120.156000", "165120.156000", "165120.156000", "165120.156000", "165120.156000", "165120.156000", "165120.156000", "165120.171000", "165120.171000", "165120.171000", "165120.171000", "165120.171000", "165120.187000", "165120.187000", "165120.187000", "165140.125000", "165140.140000", "165140.140000", "165140.140000", "165140.156000", "165140.156000", "165140.156000", "165240.125000", "165240.140000", "165240.156000", "165240.156000", "165240.156000", "165240.156000", "165240.156000", "165240.156000", "165240.156000", "165240.171000", "165240.171000", "165240.171000", "165240.171000", "165240.171000", "165240.171000", "165240.187000", "165240.187000", "165240.187000", "165240.187000", "165240.187000", "165240.187000", "165240.187000", "165240.203000", "165340.125000", "165340.156000", "165340.171000", "165340.171000", "165340.171000", "165340.171000", "165340.171000", "165340.171000", "165340.171000", "165340.187000", "165340.187000", "165340.187000", "165340.187000", "165340.187000", "165340.187000", "165340.187000", "165340.203000", "165340.203000", "165340.203000", "165340.203000", "165340.203000", "165340.203000", "165340.203000", "165440.125000", "165440.140000", "165440.140000", "165440.140000", "165440.140000", "165440.140000", "165440.140000", "165440.140000", "165440.156000", "165440.156000", "165440.156000", "165440.156000", "165440.156000", "165440.156000", "165440.156000", "165440.171000", "165440.171000", "165440.171000", "165440.187000", "165440.187000", "165440.187000", "165440.187000", "165440.187000", "165440.187000", "165540.125000", "165540.140000", "165540.140000", "165540.140000", "165540.140000", "165540.140000", "165540.156000", "165540.156000", "165540.156000", "165540.156000", "165540.156000", "165540.156000", "165540.171000", "165540.171000", "165540.171000", "165540.171000", "165540.171000", "165540.171000", "165540.171000", "165540.187000", "165540.187000", "165540.187000", "165540.187000", "165640.125000", "165640.140000", "165640.140000", "165640.140000", "165640.140000", "165640.140000", "165640.140000", "165640.140000", "165640.156000", "165640.156000", "165640.156000", "165640.156000", "165640.156000", "165640.156000", "165640.171000", "165640.171000", "165640.171000", "165640.187000", "165640.187000", "165640.187000", "165640.187000", "165640.187000", "165640.187000", "165740.125000", "165740.140000", "165740.140000", "165740.140000", "165740.140000", "165740.140000", "165740.140000", "165740.140000", "165740.156000", "165740.156000", "165740.156000", "165740.156000", "165740.156000", "165740.156000", "165740.156000", "165740.171000", "165740.171000", "165740.171000", "165740.171000", "165740.171000", "165740.171000", "165740.171000", "165740.171000", "165840.125000", "165840.140000", "165840.140000", "165840.140000", "165840.140000", "165840.156000", "165840.156000", "165840.156000", "165840.171000", "165840.171000", "165840.171000", "165840.171000", "165840.171000", "165840.171000", "165840.171000", "165840.171000", "165840.187000", "165840.187000", "165840.187000", "165840.187000", "165840.187000", "165840.187000", "165840.187000", "165853.390000", "165853.390000", "165853.390000", "165853.406000", "165853.406000"],
      "InstanceNumber": [1, 2, 3, 4, 5, 6, 7, 8, 9, 10, 11, 12, 13, 14, 15, 16, 17, 18, 19, 20, 21, 22, 23, 24, 25, 26, 27, 28, 29, 30, 31, 32, 33, 34, 35, 36, 37, 38, 39, 40, 41, 42, 43, 44, 45, 46, 47, 48, 49, 50, 51, 52, 53, 54, 55, 56, 57, 58, 59, 60, 61, 62, 63, 64, 65, 66, 67, 68, 69, 70, 71, 72, 73, 74, 75, 76, 77, 78, 79, 80, 81, 82, 83, 84, 85, 86, 87, 88, 89, 90, 91, 92, 93, 94, 95, 96, 97, 98, 99, 100, 101, 102, 103, 104, 105, 106, 107, 108, 109, 110, 111, 112, 113, 114, 115, 116, 117, 118, 119, 120, 121, 122, 123, 124, 125, 126, 127, 128, 129, 130, 131, 132, 133, 134, 135, 136, 137, 138, 139, 140, 141, 142, 143, 144, 145, 146, 147, 148, 149, 150, 151, 152, 153, 154, 155, 156, 157, 158, 159, 160, 161, 162, 163, 164, 165, 166, 167, 168, 169, 170, 171, 172, 173, 174, 175, 176, 177, 178, 179, 180, 181, 182, 183, 184, 185, 186, 187, 188, 189, 190, 191, 192, 193, 194, 195, 196, 197, 198, 199, 200, 201, 202, 203, 204, 205, 206, 207, 208, 209, 210, 211, 212, 213, 214, 215, 216, 217, 218],
      "WindowCenter": [966.0, 964.0, 965.0, 964.0, 963.0, 963.0, 963.0, 962.0, 961.0, 965.0, 963.0, 963.0, 965.0, 962.0, 962.0, 964.0, 963.0, 963.0, 964.0, 962.0, 964.0, 965.0, 963.0, 962.0, 964.0, 963.0, 963.0, 964.0, 965.0, 966.0, 964.0, 961.0, 964.0, 963.0, 961.0, 963.0, 964.0, 965.0, 962.0, 962.0, 963.0, 963.0, 963.0, 962.0, 960.0, 965.0, 963.0, 962.0, 961.0, 961.0, 961.0, 960.0, 960.0, 963.0, 960.0, 961.0, 962.0, 961.0, 959.0, 963.0, 962.0, 960.0, 961.0, 960.0, 961.0, 962.0, 960.0, 960.0, 962.0, 958.0, 960.0, 961.0, 965.0, 961.0, 958.0, 959.0, 959.0, 959.0, 960.0, 960.0, 959.0, 958.0, 958.0, 962.0, 958.0, 960.0, 960.0, 957.0, 958.0, 960.0, 958.0, 957.0, 961.0, 958.0, 957.0, 958.0, 958.0, 956.0, 957.0, 955.0, 958.0, 958.0, 958.0, 958.0, 960.0, 958.0, 956.0, 955.0, 959.0, 955.0, 955.0, 958.0, 956.0, 957.0, 958.0, 957.0, 956.0, 957.0, 958.0, 956.0, 957.0, 957.0, 958.0, 955.0, 956.0, 956.0, 958.0, 956.0, 956.0, 957.0, 956.0, 959.0, 957.0, 957.0, 957.0, 953.0, 956.0, 956.0, 955.0, 957.0, 955.0, 955.0, 955.0, 953.0, 957.0, 957.0, 953.0, 955.0, 955.0, 953.0, 957.0, 956.0, 954.0, 957.0, 959.0, 955.0, 955.0, 958.0, 959.0, 955.0, 959.0, 957.0, 956.0, 955.0, 955.0, 955.0, 955.0, 955.0, 953.0, 953.0, 959.0, 956.0, 956.0, 956.0, 956.0, 958.0, 957.0, 955.0, 956.0, 957.0, 957.0, 957.0, 959.0, 958.0, 957.0, 957.0, 954.0, 953.0, 957.0, 957.0, 957.0, 957.0, 958.0, 954.0, 957.0, 957.0, 955.0, 957.0, 958.0, 956.0, 957.0, 960.0, 954.0, 955.0, 958.0, 958.0, 955.0, 955.0, 954.0, 957.0, 957.0, 956.0, 954.0, 957.0, 955.0, 955.0, 956.0, 959.0],
      "WindowWidth": [2202.0, 2194.0, 2199.0, 2195.0, 2194.0, 2193.0, 2192.0, 2189.0, 2190.0, 2200.0, 2193.0, 2194.0, 2199.0, 2190.0, 2191.0, 2198.0, 2194.0, 2194.0, 2197.0, 2190.0, 2196.0, 2199.0, 2194.0, 2191.0, 2198.0, 2195.0, 2193.0, 2196.0, 2202.0, 2203.0, 2195.0, 2189.0, 2197.0, 2192.0, 2189.0, 2195.0, 2198.0, 2199.0, 2192.0, 2193.0, 2194.0, 2193.0, 2193.0, 2191.0, 2186.0, 2201.0, 2193.0, 2191.0, 2189.0, 2190.0, 2189.0, 2186.0, 2188.0, 2194.0, 2185.0, 2190.0, 2193.0, 2187.0, 2184.0, 2195.0, 2189.0, 2188.0, 2190.0, 2187.0, 2191.0, 2191.0, 2186.0, 2188.0, 2192.0, 2179.0, 2186.0, 2190.0, 2202.0, 2187.0, 2179.0, 2186.0, 2185.0, 2184.0, 2187.0, 2185.0, 2184.0, 2179.0, 2180.0, 2192.0, 2181.0, 2186.0, 2186.0, 2178.0, 2183.0, 2187.0, 2180.0, 2178.0, 2190.0, 2179.0, 2178.0, 2183.0, 2181.0, 2175.0, 2178.0, 2173.0, 2182.0, 2183.0, 2181.0, 2182.0, 2187.0, 2179.0, 2175.0, 2173.0, 2186.0, 2171.0, 2174.0, 2180.0, 2176.0, 2181.0, 2183.0, 2177.0, 2176.0, 2177.0, 2182.0, 2174.0, 2177.0, 2180.0, 2182.0, 2172.0, 2176.0, 2174.0, 2181.0, 2175.0, 2175.0, 2178.0, 2177.0, 2184.0, 2178.0, 2179.0, 2178.0, 2168.0, 2177.0, 2176.0, 2175.0, 2180.0, 2172.0, 2174.0, 2173.0, 2169.0, 2181.0, 2176.0, 2167.0, 2174.0, 2171.0, 2167.0, 2180.0, 2174.0, 2171.0, 2179.0, 2184.0, 2171.0, 2175.0, 2183.0, 2183.0, 2173.0, 2183.0, 2179.0, 2175.0, 2174.0, 2174.0, 2173.0, 2172.0, 2174.0, 2167.0, 2169.0, 2186.0, 2176.0, 2176.0, 2176.0, 2176.0, 2183.0, 2177.0, 2173.0, 2176.0, 2180.0, 2180.0, 2178.0, 2185.0, 2182.0, 2178.0, 2179.0, 2168.0, 2168.0, 2179.0, 2180.0, 2179.0, 2178.0, 2180.0, 2171.0, 2178.0, 2177.0, 2174.0, 2181.0, 2181.0, 2173.0, 2177.0, 2187.0, 2169.0, 2171.0, 2183.0, 2179.0, 2171.0, 2171.0, 2171.0, 2181.0, 2178.0, 2175.0, 2168.0, 2178.0, 2173.0, 2171.0, 2177.0, 2186.0]
    },
    "slices": {}
  }
}