{
  "AcquisitionMatrixPE": 188,
  "AcquisitionNumber": 1,
  "AcquisitionTime": "17:11:36.330000",
  "BandwidthPerPixelPhaseEncode": 19.46,
  "BaseResolution": 188,
  "ConversionSoftware": "dcm2niix",
  "ConversionSoftwareVersion": "v1.0.20180606 GCC4.8.5",
  "DelayTime": 1.2,
  "DerivedVendorReportedEchoSpacing": 0.000820013,
  "DeviceSerialNumber": "18930",
  "DwellTime": 1.9e-06,
  "EchoTime": 0.02,
  "EffectiveEchoSpacing": 0.000273338,
  "FlipAngle": 80,
  "ImageComments": "Unaliased_MB2_PE2",
  "ImageOrientationPatientDICOM": [0.999887, 0.0133051, -0.00693815, -0.010026, 0.248365, -0.968615],
  "ImageType": [
    "ORIGINAL",
    "PRIMARY",
    "M",
    "MB",
    "ND",
    "MOSAIC"
],
  "InPlanePhaseEncodingDirectionDICOM": "COL",
  "InstitutionAddress": "Oxfordlaan_55_Maastricht_Limburg_NL_6229_EV",
  "InstitutionName": "Scannexus",
  "InstitutionalDepartmentName": "MRI_7T",
  "MRAcquisitionType": "2D",
  "MagneticFieldStrength": 6.98,
  "Manufacturer": "Siemens",
  "ManufacturersModelName": "Investigational_Device_7T",
  "Modality": "MR",
  "MultibandAccelerationFactor": 2,
  "ParallelReductionFactorInPlane": 3,
  "PartialFourier": 0.75,
  "PatientPosition": "HFS",
  "PercentPhaseFOV": 100,
  "PhaseEncodingDirection": "j",
  "PhaseEncodingSteps": 141,
  "PhaseResolution": 1,
  "PixelBandwidth": 1400,
  "ProcedureStepDescription": "FeDem_Faruk",
  "ProtocolName": "cmrr_mbep2d_bold_AP_run3",
  "PulseSequenceDetails": "%CustomerSeq%_cmrr_mbep2d_bold",
  "ReceiveCoilName": "32Ch_Head_7T",
  "ReconMatrixPE": 188,
  "RepetitionTime": 2.6,
  "SAR": 0.0639822,
  "ScanOptions": "PFP_FS",
  "ScanningSequence": "EP",
  "SequenceName": "epfid2d1_188",
  "SequenceVariant": "SK_SS",
  "SeriesDescription": "cmrr_mbep2d_bold_AP_run3",
  "SeriesNumber": 13,
  "ShimSetting": [118, -208, 551, 585, 8, -215, -51, 92],
  "SliceThickness": 1.1,
  "SliceTiming": [0, 0.735, 0.0625, 0.795, 0.1225, 0.8575, 0.185, 0.9175, 0.245, 0.9775, 0.3075, 1.04, 0.3675, 1.1, 0.4275, 1.1625, 0.49, 1.2225, 0.55, 1.285, 0.6125, 1.345, 0.6725, 0, 0.735, 0.0625, 0.795, 0.1225, 0.8575, 0.185, 0.9175, 0.245, 0.9775, 0.3075, 1.04, 0.3675, 1.1, 0.4275, 1.1625, 0.49, 1.2225, 0.55, 1.285, 0.6125, 1.345, 0.6725],
  "SoftwareVersions": "syngo_MR_B17",
  "SpacingBetweenSlices": 1.1,
  "StationName": "MRC18930",
  "TaskName": "auditory",
  "TotalReadoutTime": 0.0511141,
  "TxRefAmp": 250,
  "dcmmeta_affine": [
    [-1.0956213474273682, -0.01098596677184105, 0.012280714698135853, 104.83442687988281],
    [-0.01457894779741764, 0.2721441388130188, -1.0654327869415283, 17.5076904296875],
    [-0.0076024411246180534, 1.0613545179367065, 0.27331697940826416, -115.14860534667969],
    [0.0, 0.0, 0.0, 1.0]
],
  "dcmmeta_reorient_transform": [
    [0.0, -1.0, 0.0, 187.0],
    [1.0, 0.0, 0.0, 0.0],
    [0.0, 0.0, 1.0, 0.0],
    [0.0, 0.0, 0.0, 1.0]
],
  "dcmmeta_shape": [188, 188, 46, 218],
  "dcmmeta_slice_dim": 2,
  "dcmmeta_version": 0.6,
  "global": {
    "const": {
      "AcquisitionMatrix": [188, 0, 0, 188],
      "AngioFlag": "N",
      "BitsAllocated": 16,
      "BitsStored": 12,
      "Columns": 1316,
      "EchoNumbers": 1,
      "EchoTime": 20.0,
      "EchoTrainLength": 1,
      "FlipAngle": 80.0,
      "HighBit": 11,
      "ImageOrientationPatient": [0.99988741240995, 0.01330505841103, -0.0069381499565, -0.0100260278566, 0.24836453586965, -0.9686147511202],
      "ImagePositionPatient": [-714.51441163638, -230.11046012075, 686.21640408658],
      "ImageType": [
        "ORIGINAL",
        "PRIMARY",
        "M",
        "MB",
        "ND",
        "MOSAIC"
],
      "ImagedNucleus": "1H",
      "ImagingFrequency": 297.205416,
      "InPlanePhaseEncodingDirection": "COL",
      "LargestImagePixelValue": 4095,
      "MRAcquisitionType": "2D",
      "MagneticFieldStrength": 6.98,
      "Manufacturer": "SIEMENS",
      "ManufacturerModelName": "Investigational_Device_7T",
      "Modality": "MR",
      "NumberOfAverages": 1.0,
      "NumberOfPhaseEncodingSteps": 141,
      "PercentPhaseFieldOfView": 100.0,
      "PercentSampling": 100.0,
      "PerformedProcedureStepStartTime": "161528.218000",
      "PhotometricInterpretation": "MONOCHROME2",
      "PixelBandwidth": 1400.0,
      "PixelRepresentation": 0,
      "PixelSpacing": [1.0957447290421, 1.0957447290421],
      "ProtocolName": "cmrr_mbep2d_bold_AP_run3",
      "RepetitionTime": 2600.0,
      "Rows": 1316,
      "SAR": 0.06398220040609,
      "SamplesPerPixel": 1,
      "ScanOptions": [
        "PFP",
        "FS"
],
      "ScanningSequence": "EP",
      "SequenceName": "epfid2d1_188",
      "SequenceVariant": [
        "SK",
        "SS"
],
      "SeriesDescription": "cmrr_mbep2d_bold_AP_run3",
      "SeriesNumber": 13,
      "SeriesTime": "171148.390000",
      "SliceLocation": -44.398086378124,
      "SliceThickness": 1.1000000238419,
      "SmallestImagePixelValue": 0,
      "SoftwareVersions": "syngo MR B17",
      "SpacingBetweenSlices": 1.1000000381174,
      "SpecificCharacterSet": "ISO_IR 100",
      "StudyID": "1",
      "StudyTime": "161528.171000",
      "TransmitCoilName": "32Ch_Head_7T",
      "VariableFlipAngleFlag": "N",
      "WindowCenterWidthExplanation": "Algo1",
      "dBdt": 0.0},
    "slices": {}
  },
  "time": {
    "samples": {
      "AcquisitionNumber": [1, 2, 3, 4, 5, 6, 7, 8, 9, 10, 11, 12, 13, 14, 15, 16, 17, 18, 19, 20, 21, 22, 23, 24, 25, 26, 27, 28, 29, 30, 31, 32, 33, 34, 35, 36, 37, 38, 39, 40, 41, 42, 43, 44, 45, 46, 47, 48, 49, 50, 51, 52, 53, 54, 55, 56, 57, 58, 59, 60, 61, 62, 63, 64, 65, 66, 67, 68, 69, 70, 71, 72, 73, 74, 75, 76, 77, 78, 79, 80, 81, 82, 83, 84, 85, 86, 87, 88, 89, 90, 91, 92, 93, 94, 95, 96, 97, 98, 99, 100, 101, 102, 103, 104, 105, 106, 107, 108, 109, 110, 111, 112, 113, 114, 115, 116, 117, 118, 119, 120, 121, 122, 123, 124, 125, 126, 127, 128, 129, 130, 131, 132, 133, 134, 135, 136, 137, 138, 139, 140, 141, 142, 143, 144, 145, 146, 147, 148, 149, 150, 151, 152, 153, 154, 155, 156, 157, 158, 159, 160, 161, 162, 163, 164, 165, 166, 167, 168, 169, 170, 171, 172, 173, 174, 175, 176, 177, 178, 179, 180, 181, 182, 183, 184, 185, 186, 187, 188, 189, 190, 191, 192, 193, 194, 195, 196, 197, 198, 199, 200, 201, 202, 203, 204, 205, 206, 207, 208, 209, 210, 211, 212, 213, 214, 215, 216, 217, 218],
      "AcquisitionTime": ["171136.330000", "171138.942500", "171141.552500", "171144.162500", "171146.772500", "171149.382500", "171151.992500", "171154.605000", "171157.215000", "171159.825000", "171202.435000", "171205.045000", "171207.655000", "171210.267500", "171212.877500", "171215.487500", "171218.097500", "171220.707500", "171223.320000", "171225.930000", "171228.540000", "171231.150000", "171233.760000", "171236.370000", "171238.982500", "171241.592500", "171244.202500", "171246.812500", "171249.422500", "171252.032500", "171254.645000", "171257.255000", "171259.865000", "171302.475000", "171305.085000", "171307.697500", "171310.307500", "171312.917500", "171315.527500", "171318.137500", "171320.747500", "171323.360000", "171325.970000", "171328.580000", "171331.190000", "171333.800000", "171336.410000", "171339.022500", "171341.632500", "171344.242500", "171346.852500", "171349.462500", "171352.075000", "171354.685000", "171357.295000", "171359.905000", "171402.515000", "171405.125000", "171407.737500", "171410.347500", "171412.957500", "171415.567500", "171418.177500", "171420.790000", "171423.400000", "171426.010000", "171428.620000", "171431.230000", "171433.840000", "171436.452500", "171439.062500", "171441.672500", "171444.282500", "171446.892500", "171449.502500", "171452.115000", "171454.725000", "171457.335000", "171459.945000", "171502.555000", "171505.167500", "171507.777500", "171510.387500", "171512.997500", "171515.607500", "171518.217500", "171520.830000", "171523.440000", "171526.050000", "171528.660000", "171531.270000", "171533.880000", "171536.492500", "171539.102500", "171541.712500", "171544.322500", "171546.932500", "171549.545000", "171552.155000", "171554.765000", "171557.375000", "171559.985000", "171602.595000", "171605.207500", "171607.817500", "171610.427500", "171613.037500", "171615.647500", "171618.257500", "171620.870000", "171623.480000", "171626.090000", "171628.700000", "171631.310000", "171633.922500", "171636.532500", "171639.142500", "171641.752500", "171644.362500", "171646.972500", "171649.585000", "171652.195000", "171654.805000", "171657.415000", "171700.025000", "171702.635000", "171705.247500", "171707.857500", "171710.467500", "171713.077500", "171715.687500", "171718.300000", "171720.910000", "171723.520000", "171726.130000", "171728.740000", "171731.350000", "171733.962500", "171736.572500", "171739.182500", "171741.792500", "171744.402500", "171747.012500", "171749.625000", "171752.235000", "171754.845000", "171757.455000", "171800.065000", "171802.677500", "171805.287500", "171807.897500", "171810.507500", "171813.117500", "171815.727500", "171818.340000", "171820.950000", "171823.560000", "171826.170000", "171828.780000", "171831.390000", "171834.002500", "171836.612500", "171839.222500", "171841.832500", "171844.442500", "171847.055000", "171849.665000", "171852.275000", "171854.885000", "171857.495000", "171900.105000", "171902.717500", "171905.327500", "171907.937500", "171910.547500", "171913.157500", "171915.767500", "171918.380000", "171920.990000", "171923.600000", "171926.210000", "171928.820000", "171931.432500", "171934.042500", "171936.652500", "171939.262500", "171941.872500", "171944.482500", "171947.095000", "171949.705000", "171952.315000", "171954.925000", "171957.535000", "172000.145000", "172002.757500", "172005.367500", "172007.977500", "172010.587500", "172013.197500", "172015.810000", "172018.420000", "172021.030000", "172023.640000", "172026.250000", "172028.860000", "172031.472500", "172034.082500", "172036.692500", "172039.302500", "172041.912500", "172044.522500", "172047.135000", "172049.745000", "172052.355000", "172054.965000", "172057.575000", "172100.187500", "172102.797500"],
      "ContentTime": ["171148.406000", "171148.406000", "171148.406000", "171148.406000", "171248.390000", "171248.406000", "171248.406000", "171248.421000", "171248.421000", "171248.421000", "171248.421000", "171248.421000", "171248.437000", "171248.437000", "171248.437000", "171248.437000", "171248.437000", "171248.437000", "171248.437000", "171248.453000", "171248.453000", "171248.453000", "171248.453000", "171248.453000", "171248.453000", "171248.453000", "171248.453000", "171348.390000", "171348.390000", "171348.406000", "171348.406000", "171348.406000", "171348.406000", "171348.406000", "171348.406000", "171348.421000", "171348.421000", "171348.421000", "171348.421000", "171348.421000", "171348.421000", "171348.437000", "171348.437000", "171348.437000", "171348.437000", "171348.437000", "171348.437000", "171348.437000", "171348.453000", "171348.453000", "171448.390000", "171448.406000", "171448.406000", "171448.406000", "171448.406000", "171448.406000", "171448.406000", "171448.406000", "171448.421000", "171448.421000", "171448.421000", "171448.421000", "171448.421000", "171448.421000", "171448.437000", "171448.437000", "171448.437000", "171448.437000", "171448.437000", "171448.437000", "171448.437000", "171448.453000", "171448.453000", "171548.390000", "171548.390000", "171548.406000", "171548.406000", "171548.406000", "171548.406000", "171548.406000", "171548.406000", "171548.406000", "171548.421000", "171548.421000", "171548.421000", "171548.421000", "171548.437000", "171548.437000", "171548.437000", "171548.437000", "171548.437000", "171548.437000", "171548.437000", "171548.437000", "171548.453000", "171548.453000", "171648.390000", "171648.390000", "171648.406000", "171648.406000", "171648.406000", "171648.406000", "171648.406000", "171648.406000", "171648.406000", "171648.421000", "171648.421000", "171648.421000", "171648.421000", "171648.421000", "171648.421000", "171648.421000", "171648.421000", "171648.437000", "171648.437000", "171648.437000", "171648.437000", "171648.453000", "171648.453000", "171748.390000", "171748.390000", "171748.406000", "171748.406000", "171748.406000", "171748.406000", "171748.406000", "171748.406000", "171748.421000", "171748.421000", "171748.421000", "171748.421000", "171748.421000", "171748.437000", "171748.437000", "171748.437000", "171748.437000", "171748.437000", "171748.437000", "171748.437000", "171748.453000", "171748.453000", "171748.453000", "171848.390000", "171848.390000", "171848.406000", "171848.406000", "171848.406000", "171848.406000", "171848.406000", "171848.406000", "171848.406000", "171848.421000", "171848.421000", "171848.421000", "171848.421000", "171848.421000", "171848.421000", "171848.421000", "171848.421000", "171848.437000", "171848.437000", "171848.437000", "171848.437000", "171848.453000", "171848.453000", "171948.390000", "171948.390000", "171948.406000", "171948.406000", "171948.406000", "171948.406000", "171948.421000", "171948.421000", "171948.421000", "171948.421000", "171948.421000", "171948.421000", "171948.421000", "171948.437000", "171948.437000", "171948.437000", "171948.437000", "171948.437000", "171948.437000", "171948.437000", "171948.453000", "171948.453000", "171948.453000", "172048.390000", "172048.406000", "172048.406000", "172048.406000", "172048.406000", "172048.421000", "172048.421000", "172048.421000", "172048.421000", "172048.421000", "172048.421000", "172048.421000", "172048.437000", "172048.437000", "172048.437000", "172048.437000", "172048.437000", "172048.437000", "172048.437000", "172048.437000", "172048.453000", "172048.453000", "172048.453000", "172109.328000", "172109.343000", "172109.343000", "172109.343000", "172109.343000", "172109.343000", "172109.343000"],
      "InstanceCreationTime": ["171148.406000", "171148.406000", "171148.406000", "171148.406000", "171248.390000", "171248.406000", "171248.406000", "171248.421000", "171248.421000", "171248.421000", "171248.421000", "171248.421000", "171248.437000", "171248.437000", "171248.437000", "171248.437000", "171248.437000", "171248.437000", "171248.437000", "171248.453000", "171248.453000", "171248.453000", "171248.453000", "171248.453000", "171248.453000", "171248.453000", "171248.453000", "171348.390000", "171348.390000", "171348.406000", "171348.406000", "171348.406000", "171348.406000", "171348.406000", "171348.406000", "171348.421000", "171348.421000", "171348.421000", "171348.421000", "171348.421000", "171348.421000", "171348.437000", "171348.437000", "171348.437000", "171348.437000", "171348.437000", "171348.437000", "171348.437000", "171348.453000", "171348.453000", "171448.390000", "171448.406000", "171448.406000", "171448.406000", "171448.406000", "171448.406000", "171448.406000", "171448.406000", "171448.421000", "171448.421000", "171448.421000", "171448.421000", "171448.421000", "171448.421000", "171448.437000", "171448.437000", "171448.437000", "171448.437000", "171448.437000", "171448.437000", "171448.437000", "171448.453000", "171448.453000", "171548.390000", "171548.390000", "171548.406000", "171548.406000", "171548.406000", "171548.406000", "171548.406000", "171548.406000", "171548.406000", "171548.421000", "171548.421000", "171548.421000", "171548.421000", "171548.437000", "171548.437000", "171548.437000", "171548.437000", "171548.437000", "171548.437000", "171548.437000", "171548.437000", "171548.453000", "171548.453000", "171648.390000", "171648.390000", "171648.406000", "171648.406000", "171648.406000", "171648.406000", "171648.406000", "171648.406000", "171648.406000", "171648.421000", "171648.421000", "171648.421000", "171648.421000", "171648.421000", "171648.421000", "171648.421000", "171648.421000", "171648.437000", "171648.437000", "171648.437000", "171648.437000", "171648.453000", "171648.453000", "171748.390000", "171748.390000", "171748.406000", "171748.406000", "171748.406000", "171748.406000", "171748.406000", "171748.406000", "171748.421000", "171748.421000", "171748.421000", "171748.421000", "171748.421000", "171748.437000", "171748.437000", "171748.437000", "171748.437000", "171748.437000", "171748.437000", "171748.437000", "171748.453000", "171748.453000", "171748.453000", "171848.390000", "171848.390000", "171848.406000", "171848.406000", "171848.406000", "171848.406000", "171848.406000", "171848.406000", "171848.406000", "171848.421000", "171848.421000", "171848.421000", "171848.421000", "171848.421000", "171848.421000", "171848.421000", "171848.421000", "171848.437000", "171848.437000", "171848.437000", "171848.437000", "171848.453000", "171848.453000", "171948.390000", "171948.390000", "171948.406000", "171948.406000", "171948.406000", "171948.406000", "171948.421000", "171948.421000", "171948.421000", "171948.421000", "171948.421000", "171948.421000", "171948.421000", "171948.437000", "171948.437000", "171948.437000", "171948.437000", "171948.437000", "171948.437000", "171948.437000", "171948.453000", "171948.453000", "171948.453000", "172048.390000", "172048.406000", "172048.406000", "172048.406000", "172048.406000", "172048.421000", "172048.421000", "172048.421000", "172048.421000", "172048.421000", "172048.421000", "172048.421000", "172048.437000", "172048.437000", "172048.437000", "172048.437000", "172048.437000", "172048.437000", "172048.437000", "172048.437000", "172048.453000", "172048.453000", "172048.453000", "172109.328000", "172109.343000", "172109.343000", "172109.343000", "172109.343000", "172109.343000", "172109.343000"],
      "InstanceNumber": [1, 2, 3, 4, 5, 6, 7, 8, 9, 10, 11, 12, 13, 14, 15, 16, 17, 18, 19, 20, 21, 22, 23, 24, 25, 26, 27, 28, 29, 30, 31, 32, 33, 34, 35, 36, 37, 38, 39, 40, 41, 42, 43, 44, 45, 46, 47, 48, 49, 50, 51, 52, 53, 54, 55, 56, 57, 58, 59, 60, 61, 62, 63, 64, 65, 66, 67, 68, 69, 70, 71, 72, 73, 74, 75, 76, 77, 78, 79, 80, 81, 82, 83, 84, 85, 86, 87, 88, 89, 90, 91, 92, 93, 94, 95, 96, 97, 98, 99, 100, 101, 102, 103, 104, 105, 106, 107, 108, 109, 110, 111, 112, 113, 114, 115, 116, 117, 118, 119, 120, 121, 122, 123, 124, 125, 126, 127, 128, 129, 130, 131, 132, 133, 134, 135, 136, 137, 138, 139, 140, 141, 142, 143, 144, 145, 146, 147, 148, 149, 150, 151, 152, 153, 154, 155, 156, 157, 158, 159, 160, 161, 162, 163, 164, 165, 166, 167, 168, 169, 170, 171, 172, 173, 174, 175, 176, 177, 178, 179, 180, 181, 182, 183, 184, 185, 186, 187, 188, 189, 190, 191, 192, 193, 194, 195, 196, 197, 198, 199, 200, 201, 202, 203, 204, 205, 206, 207, 208, 209, 210, 211, 212, 213, 214, 215, 216, 217, 218],
      "WindowCenter": [958.0, 958.0, 958.0, 957.0, 960.0, 961.0, 956.0, 953.0, 956.0, 954.0, 952.0, 953.0, 958.0, 956.0, 953.0, 957.0, 955.0, 954.0, 956.0, 952.0, 953.0, 954.0, 956.0, 955.0, 953.0, 953.0, 956.0, 955.0, 957.0, 955.0, 952.0, 954.0, 951.0, 956.0, 955.0, 955.0, 954.0, 952.0, 958.0, 958.0, 958.0, 958.0, 957.0, 956.0, 958.0, 956.0, 953.0, 955.0, 956.0, 956.0, 957.0, 953.0, 952.0, 953.0, 958.0, 954.0, 952.0, 953.0, 959.0, 960.0, 955.0, 953.0, 953.0, 953.0, 957.0, 957.0, 953.0, 956.0, 954.0, 956.0, 960.0, 956.0, 956.0, 955.0, 959.0, 951.0, 955.0, 957.0, 955.0, 955.0, 961.0, 959.0, 960.0, 961.0, 958.0, 956.0, 961.0, 959.0, 956.0, 959.0, 962.0, 957.0, 957.0, 959.0, 958.0, 958.0, 961.0, 960.0, 956.0, 959.0, 961.0, 959.0, 956.0, 955.0, 958.0, 958.0, 956.0, 955.0, 955.0, 960.0, 961.0, 958.0, 956.0, 960.0, 959.0, 958.0, 957.0, 957.0, 960.0, 959.0, 959.0, 961.0, 958.0, 958.0, 959.0, 962.0, 957.0, 956.0, 958.0, 954.0, 958.0, 957.0, 956.0, 959.0, 960.0, 960.0, 961.0, 958.0, 959.0, 961.0, 958.0, 960.0, 956.0, 959.0, 961.0, 958.0, 959.0, 957.0, 956.0, 959.0, 960.0, 956.0, 958.0, 960.0, 957.0, 960.0, 961.0, 959.0, 960.0, 959.0, 962.0, 960.0, 958.0, 959.0, 960.0, 962.0, 958.0, 956.0, 958.0, 956.0, 957.0, 961.0, 956.0, 960.0, 960.0, 962.0, 961.0, 957.0, 957.0, 959.0, 958.0, 957.0, 956.0, 956.0, 960.0, 959.0, 954.0, 959.0, 956.0, 956.0, 959.0, 958.0, 960.0, 956.0, 958.0, 959.0, 957.0, 956.0, 960.0, 960.0, 958.0, 961.0, 957.0, 956.0, 957.0, 960.0, 959.0, 958.0, 961.0, 959.0, 955.0, 957.0, 957.0, 957.0, 961.0, 959.0, 960.0, 961.0],
      "WindowWidth": [2180.0, 2179.0, 2181.0, 2177.0, 2186.0, 2187.0, 2171.0, 2165.0, 2174.0, 2167.0, 2162.0, 2166.0, 2181.0, 2173.0, 2165.0, 2178.0, 2172.0, 2169.0, 2173.0, 2162.0, 2165.0, 2172.0, 2176.0, 2172.0, 2163.0, 2168.0, 2175.0, 2173.0, 2178.0, 2171.0, 2165.0, 2170.0, 2161.0, 2175.0, 2173.0, 2172.0, 2167.0, 2165.0, 2180.0, 2180.0, 2178.0, 2179.0, 2177.0, 2175.0, 2180.0, 2173.0, 2167.0, 2172.0, 2176.0, 2176.0, 2178.0, 2165.0, 2163.0, 2169.0, 2182.0, 2169.0, 2162.0, 2168.0, 2185.0, 2184.0, 2170.0, 2164.0, 2167.0, 2167.0, 2178.0, 2179.0, 2164.0, 2175.0, 2168.0, 2175.0, 2186.0, 2174.0, 2174.0, 2173.0, 2182.0, 2157.0, 2172.0, 2177.0, 2171.0, 2173.0, 2190.0, 2183.0, 2186.0, 2189.0, 2176.0, 2175.0, 2189.0, 2179.0, 2175.0, 2185.0, 2191.0, 2176.0, 2177.0, 2183.0, 2180.0, 2179.0, 2189.0, 2184.0, 2173.0, 2184.0, 2189.0, 2180.0, 2172.0, 2172.0, 2180.0, 2181.0, 2174.0, 2172.0, 2171.0, 2186.0, 2188.0, 2177.0, 2173.0, 2185.0, 2180.0, 2178.0, 2176.0, 2179.0, 2187.0, 2184.0, 2185.0, 2189.0, 2181.0, 2179.0, 2183.0, 2189.0, 2176.0, 2175.0, 2179.0, 2169.0, 2182.0, 2178.0, 2175.0, 2184.0, 2186.0, 2186.0, 2190.0, 2180.0, 2183.0, 2190.0, 2179.0, 2184.0, 2175.0, 2183.0, 2187.0, 2182.0, 2181.0, 2174.0, 2175.0, 2183.0, 2185.0, 2173.0, 2181.0, 2186.0, 2177.0, 2189.0, 2188.0, 2184.0, 2186.0, 2184.0, 2194.0, 2183.0, 2181.0, 2183.0, 2186.0, 2192.0, 2178.0, 2173.0, 2180.0, 2173.0, 2178.0, 2191.0, 2173.0, 2188.0, 2185.0, 2193.0, 2188.0, 2175.0, 2177.0, 2184.0, 2178.0, 2177.0, 2173.0, 2174.0, 2187.0, 2182.0, 2170.0, 2180.0, 2174.0, 2174.0, 2183.0, 2181.0, 2184.0, 2173.0, 2181.0, 2183.0, 2178.0, 2175.0, 2188.0, 2184.0, 2179.0, 2189.0, 2175.0, 2175.0, 2178.0, 2188.0, 2182.0, 2182.0, 2189.0, 2181.0, 2172.0, 2178.0, 2175.0, 2179.0, 2191.0, 2182.0, 2186.0, 2190.0]
    },
    "slices": {}
  }
}