{
  "AcquisitionMatrixPE": 188,
  "AcquisitionNumber": 1,
  "AcquisitionTime": "17:45:20.172500",
  "BandwidthPerPixelPhaseEncode": 19.46,
  "BaseResolution": 188,
  "ConversionSoftware": "dcm2niix",
  "ConversionSoftwareVersion": "v1.0.20180606 GCC4.8.5",
  "DelayTime": 1.2,
  "DerivedVendorReportedEchoSpacing": 0.000820013,
  "DeviceSerialNumber": "18930",
  "DwellTime": 1.9e-06,
  "EchoTime": 0.02,
  "EffectiveEchoSpacing": 0.000273338,
  "FlipAngle": 80,
  "ImageComments": "Unaliased_MB2_PE2",
  "ImageOrientationPatientDICOM": [0.999887, 0.0133051, -0.00693815, -0.010026, 0.248365, -0.968615],
  "ImageType": [
    "ORIGINAL",
    "PRIMARY",
    "M",
    "MB",
    "ND",
    "MOSAIC"
],
  "InPlanePhaseEncodingDirectionDICOM": "COL",
  "InstitutionAddress": "Oxfordlaan_55_Maastricht_Limburg_NL_6229_EV",
  "InstitutionName": "Scannexus",
  "InstitutionalDepartmentName": "MRI_7T",
  "MRAcquisitionType": "2D",
  "MagneticFieldStrength": 6.98,
  "Manufacturer": "Siemens",
  "ManufacturersModelName": "Investigational_Device_7T",
  "Modality": "MR",
  "MultibandAccelerationFactor": 2,
  "ParallelReductionFactorInPlane": 3,
  "PartialFourier": 0.75,
  "PatientPosition": "HFS",
  "PercentPhaseFOV": 100,
  "PhaseEncodingDirection": "j",
  "PhaseEncodingSteps": 141,
  "PhaseResolution": 1,
  "PixelBandwidth": 1400,
  "ProcedureStepDescription": "FeDem_Faruk",
  "ProtocolName": "cmrr_mbep2d_bold_AP_run6",
  "PulseSequenceDetails": "%CustomerSeq%_cmrr_mbep2d_bold",
  "ReceiveCoilName": "32Ch_Head_7T",
  "ReconMatrixPE": 188,
  "RepetitionTime": 2.6,
  "SAR": 0.0638742,
  "ScanOptions": "PFP_FS",
  "ScanningSequence": "EP",
  "SequenceName": "epfid2d1_188",
  "SequenceVariant": "SK_SS",
  "SeriesDescription": "cmrr_mbep2d_bold_AP_run6",
  "SeriesNumber": 16,
  "ShimSetting": [118, -208, 551, 585, 8, -215, -51, 92],
  "SliceThickness": 1.1,
  "SliceTiming": [0, 0.7325, 0.06, 0.7925, 0.12, 0.855, 0.1825, 0.915, 0.2425, 0.9775, 0.305, 1.0375, 0.365, 1.1, 0.4275, 1.16, 0.4875, 1.22, 0.55, 1.2825, 0.61, 1.3425, 0.67, 0, 0.7325, 0.06, 0.7925, 0.12, 0.855, 0.1825, 0.915, 0.2425, 0.9775, 0.305, 1.0375, 0.365, 1.1, 0.4275, 1.16, 0.4875, 1.22, 0.55, 1.2825, 0.61, 1.3425, 0.67],
  "SoftwareVersions": "syngo_MR_B17",
  "SpacingBetweenSlices": 1.1,
  "StationName": "MRC18930",
  "TaskName": "auditory",
  "TotalReadoutTime": 0.0511141,
  "TxRefAmp": 250,
  "dcmmeta_affine": [
    [-1.0956213474273682, -0.01098596677184105, 0.012280714698135853, 104.83442687988281],
    [-0.01457894779741764, 0.2721441388130188, -1.0654327869415283, 17.5076904296875],
    [-0.0076024411246180534, 1.0613545179367065, 0.27331697940826416, -115.14860534667969],
    [0.0, 0.0, 0.0, 1.0]
],
  "dcmmeta_reorient_transform": [
    [0.0, -1.0, 0.0, 187.0],
    [1.0, 0.0, 0.0, 0.0],
    [0.0, 0.0, 1.0, 0.0],
    [0.0, 0.0, 0.0, 1.0]
],
  "dcmmeta_shape": [188, 188, 46, 218],
  "dcmmeta_slice_dim": 2,
  "dcmmeta_version": 0.6,
  "global": {
    "const": {
      "AcquisitionMatrix": [188, 0, 0, 188],
      "AngioFlag": "N",
      "BitsAllocated": 16,
      "BitsStored": 12,
      "Columns": 1316,
      "EchoNumbers": 1,
      "EchoTime": 20.0,
      "EchoTrainLength": 1,
      "FlipAngle": 80.0,
      "HighBit": 11,
      "ImageOrientationPatient": [0.99988741240995, 0.01330505841103, -0.0069381499565, -0.0100260278566, 0.24836453586965, -0.9686147511202],
      "ImagePositionPatient": [-714.51441163638, -230.11046012075, 686.21640408658],
      "ImageType": [
        "ORIGINAL",
        "PRIMARY",
        "M",
        "MB",
        "ND",
        "MOSAIC"
],
      "ImagedNucleus": "1H",
      "ImagingFrequency": 297.205431,
      "InPlanePhaseEncodingDirection": "COL",
      "LargestImagePixelValue": 4095,
      "MRAcquisitionType": "2D",
      "MagneticFieldStrength": 6.98,
      "Manufacturer": "SIEMENS",
      "ManufacturerModelName": "Investigational_Device_7T",
      "Modality": "MR",
      "NumberOfAverages": 1.0,
      "NumberOfPhaseEncodingSteps": 141,
      "PercentPhaseFieldOfView": 100.0,
      "PercentSampling": 100.0,
      "PerformedProcedureStepStartTime": "161528.218000",
      "PhotometricInterpretation": "MONOCHROME2",
      "PixelBandwidth": 1400.0,
      "PixelRepresentation": 0,
      "PixelSpacing": [1.0957447290421, 1.0957447290421],
      "ProtocolName": "cmrr_mbep2d_bold_AP_run6",
      "RepetitionTime": 2600.0,
      "Rows": 1316,
      "SAR": 0.06387415850989,
      "SamplesPerPixel": 1,
      "ScanOptions": [
        "PFP",
        "FS"
],
      "ScanningSequence": "EP",
      "SequenceName": "epfid2d1_188",
      "SequenceVariant": [
        "SK",
        "SS"
],
      "SeriesDescription": "cmrr_mbep2d_bold_AP_run6",
      "SeriesNumber": 16,
      "SeriesTime": "174628.390000",
      "SliceLocation": -44.398086378124,
      "SliceThickness": 1.1000000238419,
      "SmallestImagePixelValue": 0,
      "SoftwareVersions": "syngo MR B17",
      "SpacingBetweenSlices": 1.1000000381174,
      "SpecificCharacterSet": "ISO_IR 100",
      "StudyID": "1",
      "StudyTime": "161528.171000",
      "TransmitCoilName": "32Ch_Head_7T",
      "VariableFlipAngleFlag": "N",
      "WindowCenterWidthExplanation": "Algo1",
      "dBdt": 0.0},
    "slices": {}
  },
  "time": {
    "samples": {
      "AcquisitionNumber": [1, 2, 3, 4, 5, 6, 7, 8, 9, 10, 11, 12, 13, 14, 15, 16, 17, 18, 19, 20, 21, 22, 23, 24, 25, 26, 27, 28, 29, 30, 31, 32, 33, 34, 35, 36, 37, 38, 39, 40, 41, 42, 43, 44, 45, 46, 47, 48, 49, 50, 51, 52, 53, 54, 55, 56, 57, 58, 59, 60, 61, 62, 63, 64, 65, 66, 67, 68, 69, 70, 71, 72, 73, 74, 75, 76, 77, 78, 79, 80, 81, 82, 83, 84, 85, 86, 87, 88, 89, 90, 91, 92, 93, 94, 95, 96, 97, 98, 99, 100, 101, 102, 103, 104, 105, 106, 107, 108, 109, 110, 111, 112, 113, 114, 115, 116, 117, 118, 119, 120, 121, 122, 123, 124, 125, 126, 127, 128, 129, 130, 131, 132, 133, 134, 135, 136, 137, 138, 139, 140, 141, 142, 143, 144, 145, 146, 147, 148, 149, 150, 151, 152, 153, 154, 155, 156, 157, 158, 159, 160, 161, 162, 163, 164, 165, 166, 167, 168, 169, 170, 171, 172, 173, 174, 175, 176, 177, 178, 179, 180, 181, 182, 183, 184, 185, 186, 187, 188, 189, 190, 191, 192, 193, 194, 195, 196, 197, 198, 199, 200, 201, 202, 203, 204, 205, 206, 207, 208, 209, 210, 211, 212, 213, 214, 215, 216, 217, 218],
      "AcquisitionTime": ["174520.172500", "174522.782500", "174525.392500", "174528.002500", "174530.612500", "174533.222500", "174535.835000", "174538.445000", "174541.055000", "174543.665000", "174546.275000", "174548.887500", "174551.497500", "174554.107500", "174556.717500", "174559.327500", "174601.937500", "174604.550000", "174607.160000", "174609.770000", "174612.380000", "174614.990000", "174617.600000", "174620.212500", "174622.822500", "174625.432500", "174628.042500", "174630.652500", "174633.265000", "174635.875000", "174638.485000", "174641.095000", "174643.705000", "174646.315000", "174648.927500", "174651.537500", "174654.147500", "174656.757500", "174659.367500", "174701.977500", "174704.590000", "174707.200000", "174709.810000", "174712.420000", "174715.030000", "174717.642500", "174720.252500", "174722.862500", "174725.472500", "174728.082500", "174730.692500", "174733.305000", "174735.915000", "174738.525000", "174741.135000", "174743.745000", "174746.355000", "174748.967500", "174751.577500", "174754.187500", "174756.797500", "174759.407500", "174802.020000", "174804.630000", "174807.240000", "174809.850000", "174812.460000", "174815.070000", "174817.682500", "174820.292500", "174822.902500", "174825.512500", "174828.122500", "174830.732500", "174833.345000", "174835.955000", "174838.565000", "174841.175000", "174843.785000", "174846.397500", "174849.007500", "174851.617500", "174854.227500", "174856.837500", "174859.447500", "174902.060000", "174904.670000", "174907.280000", "174909.890000", "174912.500000", "174915.110000", "174917.722500", "174920.332500", "174922.942500", "174925.552500", "174928.162500", "174930.775000", "174933.385000", "174935.995000", "174938.605000", "174941.215000", "174943.825000", "174946.437500", "174949.047500", "174951.657500", "174954.267500", "174956.877500", "174959.487500", "175002.100000", "175004.710000", "175007.320000", "175009.930000", "175012.540000", "175015.152500", "175017.762500", "175020.372500", "175022.982500", "175025.592500", "175028.202500", "175030.815000", "175033.425000", "175036.035000", "175038.645000", "175041.255000", "175043.867500", "175046.477500", "175049.087500", "175051.697500", "175054.307500", "175056.917500", "175059.530000", "175102.140000", "175104.750000", "175107.360000", "175109.970000", "175112.580000", "175115.192500", "175117.802500", "175120.412500", "175123.022500", "175125.632500", "175128.245000", "175130.855000", "175133.465000", "175136.075000", "175138.685000", "175141.295000", "175143.907500", "175146.517500", "175149.127500", "175151.737500", "175154.347500", "175156.957500", "175159.570000", "175202.180000", "175204.790000", "175207.400000", "175210.010000", "175212.622500", "175215.232500", "175217.842500", "175220.452500", "175223.062500", "175225.672500", "175228.285000", "175230.895000", "175233.505000", "175236.115000", "175238.725000", "175241.335000", "175243.947500", "175246.557500", "175249.167500", "175251.777500", "175254.387500", "175257.000000", "175259.610000", "175302.220000", "175304.830000", "175307.440000", "175310.050000", "175312.662500", "175315.272500", "175317.882500", "175320.492500", "175323.102500", "175325.712500", "175328.325000", "175330.935000", "175333.545000", "175336.155000", "175338.765000", "175341.377500", "175343.987500", "175346.597500", "175349.207500", "175351.817500", "175354.427500", "175357.040000", "175359.650000", "175402.260000", "175404.870000", "175407.480000", "175410.090000", "175412.702500", "175415.312500", "175417.922500", "175420.532500", "175423.142500", "175425.755000", "175428.365000", "175430.975000", "175433.585000", "175436.195000", "175438.805000", "175441.417500", "175444.027500", "175446.637500"],
      "ContentTime": ["174628.406000", "174628.406000", "174628.406000", "174628.406000", "174628.406000", "174628.406000", "174628.421000", "174628.421000", "174628.421000", "174628.421000", "174628.421000", "174628.421000", "174628.421000", "174628.421000", "174628.437000", "174628.437000", "174628.437000", "174628.437000", "174628.437000", "174628.437000", "174628.437000", "174628.453000", "174628.453000", "174628.453000", "174628.453000", "174728.390000", "174728.390000", "174728.406000", "174728.406000", "174728.406000", "174728.406000", "174728.406000", "174728.406000", "174728.406000", "174728.421000", "174728.421000", "174728.421000", "174728.421000", "174728.421000", "174728.421000", "174728.421000", "174728.421000", "174728.437000", "174728.437000", "174728.437000", "174728.453000", "174728.453000", "174728.453000", "174828.390000", "174828.406000", "174828.406000", "174828.406000", "174828.406000", "174828.406000", "174828.406000", "174828.406000", "174828.406000", "174828.421000", "174828.421000", "174828.421000", "174828.421000", "174828.421000", "174828.421000", "174828.421000", "174828.437000", "174828.437000", "174828.437000", "174828.437000", "174828.437000", "174828.437000", "174828.437000", "174928.390000", "174928.390000", "174928.406000", "174928.406000", "174928.406000", "174928.406000", "174928.406000", "174928.406000", "174928.406000", "174928.421000", "174928.421000", "174928.421000", "174928.421000", "174928.437000", "174928.437000", "174928.437000", "174928.437000", "174928.437000", "174928.453000", "174928.453000", "174928.453000", "174928.453000", "174928.468000", "175028.390000", "175028.406000", "175028.406000", "175028.406000", "175028.406000", "175028.406000", "175028.406000", "175028.406000", "175028.421000", "175028.421000", "175028.421000", "175028.421000", "175028.437000", "175028.437000", "175028.437000", "175028.437000", "175028.437000", "175028.437000", "175028.437000", "175028.453000", "175028.453000", "175028.453000", "175028.453000", "175128.390000", "175128.390000", "175128.406000", "175128.406000", "175128.406000", "175128.406000", "175128.406000", "175128.406000", "175128.406000", "175128.421000", "175128.421000", "175128.421000", "175128.421000", "175128.421000", "175128.421000", "175128.421000", "175128.421000", "175128.437000", "175128.437000", "175128.437000", "175128.437000", "175128.437000", "175128.437000", "175128.437000", "175148.390000", "175148.390000", "175148.406000", "175148.406000", "175148.406000", "175148.406000", "175148.406000", "175248.390000", "175248.406000", "175248.406000", "175248.406000", "175248.421000", "175248.421000", "175248.421000", "175248.421000", "175248.421000", "175248.421000", "175248.421000", "175248.421000", "175248.437000", "175248.437000", "175248.437000", "175248.437000", "175248.437000", "175248.453000", "175248.453000", "175248.453000", "175248.453000", "175248.453000", "175248.468000", "175348.390000", "175348.390000", "175348.406000", "175348.406000", "175348.406000", "175348.406000", "175348.421000", "175348.421000", "175348.421000", "175348.421000", "175348.421000", "175348.421000", "175348.421000", "175348.421000", "175348.437000", "175348.437000", "175348.437000", "175348.437000", "175348.437000", "175348.453000", "175348.453000", "175348.453000", "175348.453000", "175448.390000", "175448.406000", "175448.406000", "175448.406000", "175448.406000", "175448.421000", "175448.421000", "175448.421000", "175448.421000", "175448.437000", "175448.437000", "175448.437000", "175448.437000", "175448.437000", "175448.453000", "175448.453000", "175448.453000", "175448.453000", "175448.468000", "175448.468000", "175448.468000", "175448.468000", "175448.468000", "175453.359000"],
      "InstanceCreationTime": ["174628.406000", "174628.406000", "174628.406000", "174628.406000", "174628.406000", "174628.406000", "174628.421000", "174628.421000", "174628.421000", "174628.421000", "174628.421000", "174628.421000", "174628.421000", "174628.421000", "174628.437000", "174628.437000", "174628.437000", "174628.437000", "174628.437000", "174628.437000", "174628.437000", "174628.453000", "174628.453000", "174628.453000", "174628.453000", "174728.390000", "174728.390000", "174728.406000", "174728.406000", "174728.406000", "174728.406000", "174728.406000", "174728.406000", "174728.406000", "174728.421000", "174728.421000", "174728.421000", "174728.421000", "174728.421000", "174728.421000", "174728.421000", "174728.421000", "174728.437000", "174728.437000", "174728.437000", "174728.453000", "174728.453000", "174728.453000", "174828.390000", "174828.406000", "174828.406000", "174828.406000", "174828.406000", "174828.406000", "174828.406000", "174828.406000", "174828.406000", "174828.421000", "174828.421000", "174828.421000", "174828.421000", "174828.421000", "174828.421000", "174828.421000", "174828.437000", "174828.437000", "174828.437000", "174828.437000", "174828.437000", "174828.437000", "174828.437000", "174928.390000", "174928.390000", "174928.406000", "174928.406000", "174928.406000", "174928.406000", "174928.406000", "174928.406000", "174928.406000", "174928.421000", "174928.421000", "174928.421000", "174928.421000", "174928.437000", "174928.437000", "174928.437000", "174928.437000", "174928.437000", "174928.453000", "174928.453000", "174928.453000", "174928.453000", "174928.468000", "175028.390000", "175028.406000", "175028.406000", "175028.406000", "175028.406000", "175028.406000", "175028.406000", "175028.406000", "175028.421000", "175028.421000", "175028.421000", "175028.421000", "175028.437000", "175028.437000", "175028.437000", "175028.437000", "175028.437000", "175028.437000", "175028.437000", "175028.453000", "175028.453000", "175028.453000", "175028.453000", "175128.390000", "175128.390000", "175128.406000", "175128.406000", "175128.406000", "175128.406000", "175128.406000", "175128.406000", "175128.406000", "175128.421000", "175128.421000", "175128.421000", "175128.421000", "175128.421000", "175128.421000", "175128.421000", "175128.421000", "175128.437000", "175128.437000", "175128.437000", "175128.437000", "175128.437000", "175128.437000", "175128.437000", "175148.390000", "175148.390000", "175148.406000", "175148.406000", "175148.406000", "175148.406000", "175148.406000", "175248.390000", "175248.406000", "175248.406000", "175248.406000", "175248.421000", "175248.421000", "175248.421000", "175248.421000", "175248.421000", "175248.421000", "175248.421000", "175248.421000", "175248.437000", "175248.437000", "175248.437000", "175248.437000", "175248.437000", "175248.453000", "175248.453000", "175248.453000", "175248.453000", "175248.453000", "175248.468000", "175348.390000", "175348.390000", "175348.406000", "175348.406000", "175348.406000", "175348.406000", "175348.421000", "175348.421000", "175348.421000", "175348.421000", "175348.421000", "175348.421000", "175348.421000", "175348.421000", "175348.437000", "175348.437000", "175348.437000", "175348.437000", "175348.437000", "175348.453000", "175348.453000", "175348.453000", "175348.453000", "175448.390000", "175448.406000", "175448.406000", "175448.406000", "175448.406000", "175448.421000", "175448.421000", "175448.421000", "175448.421000", "175448.437000", "175448.437000", "175448.437000", "175448.437000", "175448.437000", "175448.453000", "175448.453000", "175448.453000", "175448.453000", "175448.468000", "175448.468000", "175448.468000", "175448.468000", "175448.468000", "175453.359000"],
      "InstanceNumber": [1, 2, 3, 4, 5, 6, 7, 8, 9, 10, 11, 12, 13, 14, 15, 16, 17, 18, 19, 20, 21, 22, 23, 24, 25, 26, 27, 28, 29, 30, 31, 32, 33, 34, 35, 36, 37, 38, 39, 40, 41, 42, 43, 44, 45, 46, 47, 48, 49, 50, 51, 52, 53, 54, 55, 56, 57, 58, 59, 60, 61, 62, 63, 64, 65, 66, 67, 68, 69, 70, 71, 72, 73, 74, 75, 76, 77, 78, 79, 80, 81, 82, 83, 84, 85, 86, 87, 88, 89, 90, 91, 92, 93, 94, 95, 96, 97, 98, 99, 100, 101, 102, 103, 104, 105, 106, 107, 108, 109, 110, 111, 112, 113, 114, 115, 116, 117, 118, 119, 120, 121, 122, 123, 124, 125, 126, 127, 128, 129, 130, 131, 132, 133, 134, 135, 136, 137, 138, 139, 140, 141, 142, 143, 144, 145, 146, 147, 148, 149, 150, 151, 152, 153, 154, 155, 156, 157, 158, 159, 160, 161, 162, 163, 164, 165, 166, 167, 168, 169, 170, 171, 172, 173, 174, 175, 176, 177, 178, 179, 180, 181, 182, 183, 184, 185, 186, 187, 188, 189, 190, 191, 192, 193, 194, 195, 196, 197, 198, 199, 200, 201, 202, 203, 204, 205, 206, 207, 208, 209, 210, 211, 212, 213, 214, 215, 216, 217, 218],
      "WindowCenter": [962.0, 960.0, 958.0, 959.0, 958.0, 959.0, 959.0, 961.0, 960.0, 956.0, 961.0, 959.0, 960.0, 961.0, 959.0, 960.0, 958.0, 960.0, 959.0, 958.0, 958.0, 960.0, 960.0, 959.0, 959.0, 959.0, 960.0, 960.0, 959.0, 959.0, 959.0, 960.0, 960.0, 960.0, 959.0, 959.0, 960.0, 960.0, 960.0, 958.0, 963.0, 959.0, 960.0, 961.0, 958.0, 960.0, 961.0, 960.0, 960.0, 960.0, 961.0, 959.0, 959.0, 961.0, 959.0, 963.0, 961.0, 959.0, 961.0, 960.0, 959.0, 958.0, 962.0, 959.0, 958.0, 960.0, 962.0, 957.0, 960.0, 961.0, 958.0, 960.0, 961.0, 962.0, 960.0, 961.0, 961.0, 960.0, 960.0, 960.0, 960.0, 961.0, 959.0, 959.0, 961.0, 959.0, 961.0, 960.0, 959.0, 961.0, 961.0, 960.0, 961.0, 961.0, 960.0, 960.0, 963.0, 960.0, 961.0, 962.0, 962.0, 960.0, 960.0, 962.0, 959.0, 960.0, 961.0, 961.0, 960.0, 960.0, 961.0, 961.0, 958.0, 961.0, 961.0, 961.0, 961.0, 960.0, 961.0, 960.0, 959.0, 963.0, 960.0, 960.0, 961.0, 962.0, 959.0, 958.0, 963.0, 961.0, 960.0, 962.0, 960.0, 959.0, 964.0, 962.0, 960.0, 962.0, 961.0, 960.0, 961.0, 962.0, 958.0, 960.0, 959.0, 959.0, 962.0, 963.0, 960.0, 960.0, 962.0, 960.0, 962.0, 960.0, 960.0, 963.0, 959.0, 961.0, 961.0, 961.0, 963.0, 962.0, 961.0, 961.0, 962.0, 961.0, 963.0, 962.0, 961.0, 960.0, 962.0, 962.0, 959.0, 962.0, 962.0, 960.0, 962.0, 960.0, 963.0, 961.0, 964.0, 961.0, 960.0, 963.0, 962.0, 960.0, 963.0, 962.0, 963.0, 966.0, 961.0, 961.0, 963.0, 961.0, 962.0, 962.0, 961.0, 964.0, 960.0, 961.0, 964.0, 962.0, 960.0, 962.0, 961.0, 961.0, 962.0, 962.0, 963.0, 964.0, 962.0, 965.0, 962.0, 963.0, 964.0, 963.0, 964.0, 967.0],
      "WindowWidth": [2192.0, 2186.0, 2180.0, 2183.0, 2182.0, 2183.0, 2184.0, 2191.0, 2184.0, 2176.0, 2191.0, 2182.0, 2187.0, 2188.0, 2183.0, 2186.0, 2182.0, 2188.0, 2183.0, 2182.0, 2182.0, 2188.0, 2188.0, 2184.0, 2185.0, 2186.0, 2186.0, 2186.0, 2185.0, 2186.0, 2185.0, 2188.0, 2187.0, 2186.0, 2185.0, 2185.0, 2186.0, 2187.0, 2185.0, 2181.0, 2195.0, 2181.0, 2189.0, 2188.0, 2181.0, 2186.0, 2189.0, 2186.0, 2187.0, 2186.0, 2191.0, 2185.0, 2185.0, 2191.0, 2186.0, 2196.0, 2188.0, 2185.0, 2189.0, 2186.0, 2184.0, 2181.0, 2194.0, 2182.0, 2182.0, 2187.0, 2192.0, 2179.0, 2188.0, 2189.0, 2182.0, 2189.0, 2191.0, 2193.0, 2188.0, 2191.0, 2192.0, 2188.0, 2187.0, 2187.0, 2187.0, 2190.0, 2183.0, 2185.0, 2192.0, 2183.0, 2192.0, 2187.0, 2187.0, 2191.0, 2189.0, 2188.0, 2192.0, 2189.0, 2188.0, 2187.0, 2197.0, 2186.0, 2189.0, 2193.0, 2191.0, 2187.0, 2189.0, 2191.0, 2184.0, 2188.0, 2191.0, 2191.0, 2185.0, 2188.0, 2192.0, 2189.0, 2182.0, 2191.0, 2189.0, 2190.0, 2190.0, 2189.0, 2190.0, 2186.0, 2186.0, 2195.0, 2185.0, 2188.0, 2190.0, 2193.0, 2183.0, 2183.0, 2197.0, 2188.0, 2186.0, 2194.0, 2186.0, 2185.0, 2200.0, 2191.0, 2189.0, 2192.0, 2191.0, 2188.0, 2191.0, 2192.0, 2180.0, 2188.0, 2185.0, 2184.0, 2192.0, 2194.0, 2186.0, 2189.0, 2192.0, 2186.0, 2192.0, 2186.0, 2189.0, 2195.0, 2185.0, 2191.0, 2191.0, 2191.0, 2195.0, 2192.0, 2189.0, 2192.0, 2192.0, 2192.0, 2195.0, 2191.0, 2188.0, 2187.0, 2195.0, 2193.0, 2183.0, 2193.0, 2192.0, 2187.0, 2192.0, 2188.0, 2195.0, 2190.0, 2198.0, 2188.0, 2189.0, 2196.0, 2190.0, 2186.0, 2196.0, 2194.0, 2196.0, 2205.0, 2188.0, 2191.0, 2195.0, 2190.0, 2193.0, 2191.0, 2189.0, 2198.0, 2185.0, 2190.0, 2199.0, 2190.0, 2188.0, 2195.0, 2188.0, 2191.0, 2194.0, 2194.0, 2196.0, 2197.0, 2194.0, 2201.0, 2193.0, 2195.0, 2197.0, 2194.0, 2199.0, 2208.0]
    },
    "slices": {}
  }
}