{
  "AcquisitionMatrixPE": 188,
  "AcquisitionNumber": 1,
  "AcquisitionTime": "18:06:47.162500",
  "BandwidthPerPixelPhaseEncode": 19.46,
  "BaseResolution": 188,
  "ConversionSoftware": "dcm2niix",
  "ConversionSoftwareVersion": "v1.0.20180606 GCC4.8.5",
  "DelayTime": 1.2,
  "DerivedVendorReportedEchoSpacing": 0.000820013,
  "DeviceSerialNumber": "18930",
  "DwellTime": 1.9e-06,
  "EchoTime": 0.02,
  "EffectiveEchoSpacing": 0.000273338,
  "FlipAngle": 80,
  "ImageComments": "Unaliased_MB2_PE2",
  "ImageOrientationPatientDICOM": [0.999887, 0.0133051, -0.00693815, -0.010026, 0.248365, -0.968615],
  "ImageType": [
    "ORIGINAL",
    "PRIMARY",
    "M",
    "MB",
    "ND",
    "MOSAIC"
],
  "InPlanePhaseEncodingDirectionDICOM": "COL",
  "InstitutionAddress": "Oxfordlaan_55_Maastricht_Limburg_NL_6229_EV",
  "InstitutionName": "Scannexus",
  "InstitutionalDepartmentName": "MRI_7T",
  "MRAcquisitionType": "2D",
  "MagneticFieldStrength": 6.98,
  "Manufacturer": "Siemens",
  "ManufacturersModelName": "Investigational_Device_7T",
  "Modality": "MR",
  "MultibandAccelerationFactor": 2,
  "ParallelReductionFactorInPlane": 3,
  "PartialFourier": 0.75,
  "PatientPosition": "HFS",
  "PercentPhaseFOV": 100,
  "PhaseEncodingDirection": "j",
  "PhaseEncodingSteps": 141,
  "PhaseResolution": 1,
  "PixelBandwidth": 1400,
  "ProcedureStepDescription": "FeDem_Faruk",
  "ProtocolName": "cmrr_mbep2d_bold_AP_run8",
  "PulseSequenceDetails": "%CustomerSeq%_cmrr_mbep2d_bold",
  "ReceiveCoilName": "32Ch_Head_7T",
  "ReconMatrixPE": 188,
  "RepetitionTime": 2.6,
  "SAR": 0.0635824,
  "ScanOptions": "PFP_FS",
  "ScanningSequence": "EP",
  "SequenceName": "epfid2d1_188",
  "SequenceVariant": "SK_SS",
  "SeriesDescription": "cmrr_mbep2d_bold_AP_run8",
  "SeriesNumber": 18,
  "ShimSetting": [118, -208, 551, 585, 8, -215, -51, 92],
  "SliceThickness": 1.1,
  "SliceTiming": [0, 0.735, 0.0625, 0.795, 0.1225, 0.8575, 0.185, 0.9175, 0.245, 0.98, 0.3075, 1.04, 0.3675, 1.1, 0.43, 1.1625, 0.49, 1.2225, 0.55, 1.285, 0.6125, 1.345, 0.6725, 0, 0.735, 0.0625, 0.795, 0.1225, 0.8575, 0.185, 0.9175, 0.245, 0.98, 0.3075, 1.04, 0.3675, 1.1, 0.43, 1.1625, 0.49, 1.2225, 0.55, 1.285, 0.6125, 1.345, 0.6725],
  "SoftwareVersions": "syngo_MR_B17",
  "SpacingBetweenSlices": 1.1,
  "StationName": "MRC18930",
  "TaskName": "auditory",
  "TotalReadoutTime": 0.0511141,
  "TxRefAmp": 250,
  "dcmmeta_affine": [
    [-1.0956213474273682, -0.01098596677184105, 0.012280714698135853, 104.83442687988281],
    [-0.01457894779741764, 0.2721441388130188, -1.0654327869415283, 17.5076904296875],
    [-0.0076024411246180534, 1.0613545179367065, 0.27331697940826416, -115.14860534667969],
    [0.0, 0.0, 0.0, 1.0]
],
  "dcmmeta_reorient_transform": [
    [0.0, -1.0, 0.0, 187.0],
    [1.0, 0.0, 0.0, 0.0],
    [0.0, 0.0, 1.0, 0.0],
    [0.0, 0.0, 0.0, 1.0]
],
  "dcmmeta_shape": [188, 188, 46, 218],
  "dcmmeta_slice_dim": 2,
  "dcmmeta_version": 0.6,
  "global": {
    "const": {
      "AcquisitionMatrix": [188, 0, 0, 188],
      "AngioFlag": "N",
      "BitsAllocated": 16,
      "BitsStored": 12,
      "Columns": 1316,
      "EchoNumbers": 1,
      "EchoTime": 20.0,
      "EchoTrainLength": 1,
      "FlipAngle": 80.0,
      "HighBit": 11,
      "ImageOrientationPatient": [0.99988741240995, 0.01330505841103, -0.0069381499565, -0.0100260278566, 0.24836453586965, -0.9686147511202],
      "ImagePositionPatient": [-714.51441163638, -230.11046012075, 686.21640408658],
      "ImageType": [
        "ORIGINAL",
        "PRIMARY",
        "M",
        "MB",
        "ND",
        "MOSAIC"
],
      "ImagedNucleus": "1H",
      "ImagingFrequency": 297.205401,
      "InPlanePhaseEncodingDirection": "COL",
      "LargestImagePixelValue": 4095,
      "MRAcquisitionType": "2D",
      "MagneticFieldStrength": 6.98,
      "Manufacturer": "SIEMENS",
      "ManufacturerModelName": "Investigational_Device_7T",
      "Modality": "MR",
      "NumberOfAverages": 1.0,
      "NumberOfPhaseEncodingSteps": 141,
      "PercentPhaseFieldOfView": 100.0,
      "PercentSampling": 100.0,
      "PerformedProcedureStepStartTime": "161528.218000",
      "PhotometricInterpretation": "MONOCHROME2",
      "PixelBandwidth": 1400.0,
      "PixelRepresentation": 0,
      "PixelSpacing": [1.0957447290421, 1.0957447290421],
      "ProtocolName": "cmrr_mbep2d_bold_AP_run8",
      "RepetitionTime": 2600.0,
      "Rows": 1316,
      "SAR": 0.06358237936807,
      "SamplesPerPixel": 1,
      "ScanOptions": [
        "PFP",
        "FS"
],
      "ScanningSequence": "EP",
      "SequenceName": "epfid2d1_188",
      "SequenceVariant": [
        "SK",
        "SS"
],
      "SeriesDescription": "cmrr_mbep2d_bold_AP_run8",
      "SeriesNumber": 18,
      "SeriesTime": "180755.968000",
      "SliceLocation": -44.398086378124,
      "SliceThickness": 1.1000000238419,
      "SmallestImagePixelValue": 0,
      "SoftwareVersions": "syngo MR B17",
      "SpacingBetweenSlices": 1.1000000381174,
      "SpecificCharacterSet": "ISO_IR 100",
      "StudyID": "1",
      "StudyTime": "161528.171000",
      "TransmitCoilName": "32Ch_Head_7T",
      "VariableFlipAngleFlag": "N",
      "WindowCenterWidthExplanation": "Algo1",
      "dBdt": 0.0},
    "slices": {}
  },
  "time": {
    "samples": {
      "AcquisitionNumber": [1, 2, 3, 4, 5, 6, 7, 8, 9, 10, 11, 12, 13, 14, 15, 16, 17, 18, 19, 20, 21, 22, 23, 24, 25, 26, 27, 28, 29, 30, 31, 32, 33, 34, 35, 36, 37, 38, 39, 40, 41, 42, 43, 44, 45, 46, 47, 48, 49, 50, 51, 52, 53, 54, 55, 56, 57, 58, 59, 60, 61, 62, 63, 64, 65, 66, 67, 68, 69, 70, 71, 72, 73, 74, 75, 76, 77, 78, 79, 80, 81, 82, 83, 84, 85, 86, 87, 88, 89, 90, 91, 92, 93, 94, 95, 96, 97, 98, 99, 100, 101, 102, 103, 104, 105, 106, 107, 108, 109, 110, 111, 112, 113, 114, 115, 116, 117, 118, 119, 120, 121, 122, 123, 124, 125, 126, 127, 128, 129, 130, 131, 132, 133, 134, 135, 136, 137, 138, 139, 140, 141, 142, 143, 144, 145, 146, 147, 148, 149, 150, 151, 152, 153, 154, 155, 156, 157, 158, 159, 160, 161, 162, 163, 164, 165, 166, 167, 168, 169, 170, 171, 172, 173, 174, 175, 176, 177, 178, 179, 180, 181, 182, 183, 184, 185, 186, 187, 188, 189, 190, 191, 192, 193, 194, 195, 196, 197, 198, 199, 200, 201, 202, 203, 204, 205, 206, 207, 208, 209, 210, 211, 212, 213, 214, 215, 216, 217, 218],
      "AcquisitionTime": ["180647.162500", "180649.775000", "180652.385000", "180654.995000", "180657.605000", "180700.215000", "180702.827500", "180705.437500", "180708.047500", "180710.657500", "180713.267500", "180715.877500", "180718.490000", "180721.100000", "180723.710000", "180726.320000", "180728.930000", "180731.542500", "180734.152500", "180736.762500", "180739.372500", "180741.982500", "180744.592500", "180747.205000", "180749.815000", "180752.425000", "180755.035000", "180757.645000", "180800.255000", "180802.867500", "180805.477500", "180808.087500", "180810.697500", "180813.307500", "180815.920000", "180818.530000", "180821.140000", "180823.750000", "180826.360000", "180828.970000", "180831.582500", "180834.192500", "180836.802500", "180839.412500", "180842.022500", "180844.632500", "180847.245000", "180849.855000", "180852.465000", "180855.075000", "180857.685000", "180900.297500", "180902.907500", "180905.517500", "180908.127500", "180910.737500", "180913.347500", "180915.960000", "180918.570000", "180921.180000", "180923.790000", "180926.400000", "180929.010000", "180931.622500", "180934.232500", "180936.842500", "180939.452500", "180942.062500", "180944.675000", "180947.285000", "180949.895000", "180952.505000", "180955.115000", "180957.725000", "181000.337500", "181002.947500", "181005.557500", "181008.167500", "181010.777500", "181013.387500", "181016.000000", "181018.610000", "181021.220000", "181023.830000", "181026.440000", "181029.052500", "181031.662500", "181034.272500", "181036.882500", "181039.492500", "181042.102500", "181044.715000", "181047.325000", "181049.935000", "181052.545000", "181055.155000", "181057.765000", "181100.377500", "181102.987500", "181105.597500", "181108.207500", "181110.817500", "181113.430000", "181116.040000", "181118.650000", "181121.260000", "181123.870000", "181126.480000", "181129.092500", "181131.702500", "181134.312500", "181136.922500", "181139.532500", "181142.142500", "181144.755000", "181147.365000", "181149.975000", "181152.585000", "181155.195000", "181157.807500", "181200.417500", "181203.027500", "181205.637500", "181208.247500", "181210.857500", "181213.470000", "181216.080000", "181218.690000", "181221.300000", "181223.910000", "181226.520000", "181229.132500", "181231.742500", "181234.352500", "181236.962500", "181239.572500", "181242.185000", "181244.795000", "181247.405000", "181250.015000", "181252.625000", "181255.235000", "181257.847500", "181300.457500", "181303.067500", "181305.677500", "181308.287500", "181310.897500", "181313.510000", "181316.120000", "181318.730000", "181321.340000", "181323.950000", "181326.562500", "181329.172500", "181331.782500", "181334.392500", "181337.002500", "181339.612500", "181342.225000", "181344.835000", "181347.445000", "181350.055000", "181352.665000", "181355.275000", "181357.887500", "181400.497500", "181403.107500", "181405.717500", "181408.327500", "181410.940000", "181413.550000", "181416.160000", "181418.770000", "181421.380000", "181423.990000", "181426.602500", "181429.212500", "181431.822500", "181434.432500", "181437.042500", "181439.652500", "181442.265000", "181444.875000", "181447.485000", "181450.095000", "181452.705000", "181455.317500", "181457.927500", "181500.537500", "181503.147500", "181505.757500", "181508.367500", "181510.980000", "181513.590000", "181516.200000", "181518.810000", "181521.420000", "181524.030000", "181526.642500", "181529.252500", "181531.862500", "181534.472500", "181537.082500", "181539.695000", "181542.305000", "181544.915000", "181547.525000", "181550.135000", "181552.745000", "181555.357500", "181557.967500", "181600.577500", "181603.187500", "181605.797500", "181608.407500", "181611.020000", "181613.630000"],
      "ContentTime": ["180755.968000", "180755.968000", "180755.968000", "180755.968000", "180755.984000", "180755.984000", "180755.984000", "180755.984000", "180755.984000", "180755.984000", "180755.984000", "180756.000000", "180756.000000", "180756.000000", "180756.000000", "180756.000000", "180756.000000", "180756.000000", "180756.015000", "180756.015000", "180756.015000", "180756.015000", "180756.031000", "180756.031000", "180756.031000", "180855.953000", "180855.968000", "180855.968000", "180855.968000", "180855.968000", "180855.968000", "180855.968000", "180855.968000", "180855.984000", "180855.984000", "180855.984000", "180855.984000", "180855.984000", "180855.984000", "180855.984000", "180856.000000", "180856.000000", "180856.000000", "180856.000000", "180856.015000", "180856.015000", "180856.015000", "180856.015000", "180955.953000", "180955.968000", "180955.968000", "180955.968000", "180955.968000", "180955.968000", "180955.968000", "180955.968000", "180955.984000", "180955.984000", "180955.984000", "180955.984000", "180955.984000", "180955.984000", "180955.984000", "180956.000000", "180956.000000", "180956.000000", "180956.000000", "180956.000000", "180956.000000", "180956.000000", "180956.015000", "181055.953000", "181055.968000", "181055.968000", "181055.968000", "181055.984000", "181055.984000", "181055.984000", "181055.984000", "181055.984000", "181056.000000", "181056.000000", "181056.000000", "181056.000000", "181056.000000", "181056.000000", "181056.000000", "181056.015000", "181056.015000", "181056.031000", "181056.031000", "181056.031000", "181056.031000", "181056.031000", "181135.953000", "181135.968000", "181135.968000", "181135.968000", "181135.968000", "181135.968000", "181135.968000", "181135.968000", "181135.984000", "181135.984000", "181135.984000", "181135.984000", "181135.984000", "181135.984000", "181135.984000", "181135.984000", "181235.953000", "181235.968000", "181235.968000", "181235.968000", "181235.968000", "181235.968000", "181235.968000", "181235.968000", "181235.984000", "181235.984000", "181235.984000", "181235.984000", "181235.984000", "181235.984000", "181235.984000", "181235.984000", "181236.000000", "181236.000000", "181236.000000", "181236.000000", "181236.000000", "181236.000000", "181236.000000", "181335.953000", "181335.968000", "181335.968000", "181335.968000", "181335.968000", "181335.968000", "181335.968000", "181335.968000", "181335.968000", "181335.984000", "181335.984000", "181335.984000", "181335.984000", "181335.984000", "181335.984000", "181335.984000", "181336.000000", "181336.000000", "181336.000000", "181336.000000", "181336.000000", "181336.000000", "181336.000000", "181435.953000", "181435.968000", "181435.968000", "181435.968000", "181435.968000", "181435.968000", "181435.984000", "181435.984000", "181435.984000", "181435.984000", "181436.000000", "181436.000000", "181436.000000", "181436.000000", "181436.000000", "181436.000000", "181436.015000", "181436.015000", "181436.015000", "181436.015000", "181436.015000", "181436.015000", "181436.015000", "181535.953000", "181535.968000", "181535.968000", "181535.968000", "181535.968000", "181535.984000", "181535.984000", "181535.984000", "181536.000000", "181536.000000", "181536.000000", "181536.000000", "181536.000000", "181536.000000", "181536.015000", "181536.015000", "181536.015000", "181536.015000", "181536.015000", "181536.015000", "181536.031000", "181536.031000", "181536.031000", "181621.281000", "181621.281000", "181621.281000", "181621.281000", "181621.296000", "181621.296000", "181621.296000", "181621.296000", "181621.296000", "181621.296000", "181621.296000", "181621.312000", "181621.312000", "181621.312000", "181621.312000", "181621.312000"],
      "InstanceCreationTime": ["180755.968000", "180755.968000", "180755.968000", "180755.968000", "180755.984000", "180755.984000", "180755.984000", "180755.984000", "180755.984000", "180755.984000", "180755.984000", "180756.000000", "180756.000000", "180756.000000", "180756.000000", "180756.000000", "180756.000000", "180756.000000", "180756.015000", "180756.015000", "180756.015000", "180756.015000", "180756.031000", "180756.031000", "180756.031000", "180855.953000", "180855.968000", "180855.968000", "180855.968000", "180855.968000", "180855.968000", "180855.968000", "180855.968000", "180855.984000", "180855.984000", "180855.984000", "180855.984000", "180855.984000", "180855.984000", "180855.984000", "180856.000000", "180856.000000", "180856.000000", "180856.000000", "180856.015000", "180856.015000", "180856.015000", "180856.015000", "180955.953000", "180955.968000", "180955.968000", "180955.968000", "180955.968000", "180955.968000", "180955.968000", "180955.968000", "180955.984000", "180955.984000", "180955.984000", "180955.984000", "180955.984000", "180955.984000", "180955.984000", "180956.000000", "180956.000000", "180956.000000", "180956.000000", "180956.000000", "180956.000000", "180956.000000", "180956.015000", "181055.953000", "181055.968000", "181055.968000", "181055.968000", "181055.984000", "181055.984000", "181055.984000", "181055.984000", "181055.984000", "181056.000000", "181056.000000", "181056.000000", "181056.000000", "181056.000000", "181056.000000", "181056.000000", "181056.015000", "181056.015000", "181056.031000", "181056.031000", "181056.031000", "181056.031000", "181056.031000", "181135.953000", "181135.968000", "181135.968000", "181135.968000", "181135.968000", "181135.968000", "181135.968000", "181135.968000", "181135.984000", "181135.984000", "181135.984000", "181135.984000", "181135.984000", "181135.984000", "181135.984000", "181135.984000", "181235.953000", "181235.968000", "181235.968000", "181235.968000", "181235.968000", "181235.968000", "181235.968000", "181235.968000", "181235.984000", "181235.984000", "181235.984000", "181235.984000", "181235.984000", "181235.984000", "181235.984000", "181235.984000", "181236.000000", "181236.000000", "181236.000000", "181236.000000", "181236.000000", "181236.000000", "181236.000000", "181335.953000", "181335.968000", "181335.968000", "181335.968000", "181335.968000", "181335.968000", "181335.968000", "181335.968000", "181335.968000", "181335.984000", "181335.984000", "181335.984000", "181335.984000", "181335.984000", "181335.984000", "181335.984000", "181336.000000", "181336.000000", "181336.000000", "181336.000000", "181336.000000", "181336.000000", "181336.000000", "181435.953000", "181435.968000", "181435.968000", "181435.968000", "181435.968000", "181435.968000", "181435.984000", "181435.984000", "181435.984000", "181435.984000", "181436.000000", "181436.000000", "181436.000000", "181436.000000", "181436.000000", "181436.000000", "181436.015000", "181436.015000", "181436.015000", "181436.015000", "181436.015000", "181436.015000", "181436.015000", "181535.953000", "181535.968000", "181535.968000", "181535.968000", "181535.968000", "181535.984000", "181535.984000", "181535.984000", "181536.000000", "181536.000000", "181536.000000", "181536.000000", "181536.000000", "181536.000000", "181536.015000", "181536.015000", "181536.015000", "181536.015000", "181536.015000", "181536.015000", "181536.031000", "181536.031000", "181536.031000", "181621.281000", "181621.281000", "181621.281000", "181621.281000", "181621.296000", "181621.296000", "181621.296000", "181621.296000", "181621.296000", "181621.296000", "181621.296000", "181621.312000", "181621.312000", "181621.312000", "181621.312000", "181621.312000"],
      "InstanceNumber": [1, 2, 3, 4, 5, 6, 7, 8, 9, 10, 11, 12, 13, 14, 15, 16, 17, 18, 19, 20, 21, 22, 23, 24, 25, 26, 27, 28, 29, 30, 31, 32, 33, 34, 35, 36, 37, 38, 39, 40, 41, 42, 43, 44, 45, 46, 47, 48, 49, 50, 51, 52, 53, 54, 55, 56, 57, 58, 59, 60, 61, 62, 63, 64, 65, 66, 67, 68, 69, 70, 71, 72, 73, 74, 75, 76, 77, 78, 79, 80, 81, 82, 83, 84, 85, 86, 87, 88, 89, 90, 91, 92, 93, 94, 95, 96, 97, 98, 99, 100, 101, 102, 103, 104, 105, 106, 107, 108, 109, 110, 111, 112, 113, 114, 115, 116, 117, 118, 119, 120, 121, 122, 123, 124, 125, 126, 127, 128, 129, 130, 131, 132, 133, 134, 135, 136, 137, 138, 139, 140, 141, 142, 143, 144, 145, 146, 147, 148, 149, 150, 151, 152, 153, 154, 155, 156, 157, 158, 159, 160, 161, 162, 163, 164, 165, 166, 167, 168, 169, 170, 171, 172, 173, 174, 175, 176, 177, 178, 179, 180, 181, 182, 183, 184, 185, 186, 187, 188, 189, 190, 191, 192, 193, 194, 195, 196, 197, 198, 199, 200, 201, 202, 203, 204, 205, 206, 207, 208, 209, 210, 211, 212, 213, 214, 215, 216, 217, 218],
      "WindowCenter": [964.0, 959.0, 966.0, 965.0, 962.0, 964.0, 964.0, 962.0, 963.0, 962.0, 960.0, 964.0, 962.0, 961.0, 962.0, 963.0, 961.0, 965.0, 964.0, 962.0, 963.0, 965.0, 961.0, 962.0, 965.0, 963.0, 962.0, 962.0, 961.0, 963.0, 964.0, 962.0, 964.0, 963.0, 962.0, 962.0, 963.0, 962.0, 965.0, 964.0, 962.0, 963.0, 963.0, 964.0, 962.0, 961.0, 965.0, 964.0, 962.0, 965.0, 965.0, 966.0, 963.0, 962.0, 963.0, 964.0, 963.0, 961.0, 965.0, 963.0, 961.0, 964.0, 963.0, 963.0, 963.0, 961.0, 963.0, 964.0, 963.0, 966.0, 964.0, 962.0, 963.0, 963.0, 962.0, 964.0, 964.0, 962.0, 965.0, 965.0, 963.0, 964.0, 965.0, 964.0, 963.0, 964.0, 964.0, 963.0, 963.0, 963.0, 963.0, 962.0, 964.0, 964.0, 964.0, 965.0, 965.0, 964.0, 964.0, 964.0, 965.0, 965.0, 962.0, 963.0, 963.0, 961.0, 964.0, 965.0, 963.0, 964.0, 965.0, 961.0, 964.0, 964.0, 961.0, 962.0, 962.0, 965.0, 963.0, 964.0, 964.0, 964.0, 962.0, 964.0, 966.0, 963.0, 961.0, 963.0, 966.0, 965.0, 965.0, 966.0, 964.0, 963.0, 961.0, 964.0, 963.0, 962.0, 961.0, 964.0, 965.0, 964.0, 961.0, 965.0, 963.0, 963.0, 962.0, 963.0, 964.0, 964.0, 965.0, 963.0, 963.0, 963.0, 963.0, 963.0, 962.0, 963.0, 964.0, 963.0, 964.0, 963.0, 962.0, 966.0, 964.0, 962.0, 964.0, 964.0, 961.0, 964.0, 967.0, 964.0, 961.0, 963.0, 963.0, 962.0, 964.0, 963.0, 962.0, 965.0, 963.0, 963.0, 964.0, 962.0, 962.0, 964.0, 964.0, 962.0, 963.0, 963.0, 962.0, 963.0, 962.0, 963.0, 962.0, 961.0, 960.0, 964.0, 964.0, 962.0, 965.0, 962.0, 964.0, 963.0, 965.0, 963.0, 962.0, 963.0, 960.0, 965.0, 965.0, 961.0, 963.0, 965.0, 962.0, 962.0, 963.0, 966.0],
      "WindowWidth": [2196.0, 2185.0, 2202.0, 2198.0, 2190.0, 2196.0, 2195.0, 2189.0, 2192.0, 2188.0, 2184.0, 2197.0, 2190.0, 2188.0, 2192.0, 2192.0, 2188.0, 2198.0, 2193.0, 2190.0, 2195.0, 2198.0, 2188.0, 2191.0, 2199.0, 2193.0, 2191.0, 2189.0, 2187.0, 2196.0, 2196.0, 2191.0, 2196.0, 2195.0, 2191.0, 2193.0, 2193.0, 2191.0, 2198.0, 2194.0, 2190.0, 2194.0, 2193.0, 2196.0, 2191.0, 2189.0, 2199.0, 2194.0, 2192.0, 2198.0, 2201.0, 2202.0, 2193.0, 2191.0, 2194.0, 2197.0, 2192.0, 2187.0, 2199.0, 2193.0, 2188.0, 2195.0, 2192.0, 2194.0, 2192.0, 2189.0, 2194.0, 2196.0, 2194.0, 2200.0, 2195.0, 2190.0, 2194.0, 2192.0, 2189.0, 2197.0, 2197.0, 2191.0, 2199.0, 2199.0, 2192.0, 2195.0, 2198.0, 2195.0, 2193.0, 2195.0, 2195.0, 2193.0, 2193.0, 2194.0, 2191.0, 2190.0, 2196.0, 2196.0, 2197.0, 2197.0, 2197.0, 2196.0, 2197.0, 2196.0, 2198.0, 2200.0, 2188.0, 2192.0, 2194.0, 2187.0, 2196.0, 2195.0, 2191.0, 2197.0, 2197.0, 2185.0, 2195.0, 2196.0, 2186.0, 2190.0, 2191.0, 2197.0, 2192.0, 2194.0, 2196.0, 2196.0, 2190.0, 2197.0, 2201.0, 2193.0, 2188.0, 2193.0, 2200.0, 2196.0, 2198.0, 2200.0, 2194.0, 2193.0, 2185.0, 2193.0, 2193.0, 2188.0, 2189.0, 2197.0, 2196.0, 2194.0, 2187.0, 2197.0, 2193.0, 2191.0, 2191.0, 2192.0, 2195.0, 2197.0, 2197.0, 2191.0, 2193.0, 2193.0, 2193.0, 2192.0, 2190.0, 2193.0, 2194.0, 2192.0, 2196.0, 2192.0, 2190.0, 2202.0, 2195.0, 2189.0, 2197.0, 2194.0, 2189.0, 2197.0, 2205.0, 2195.0, 2186.0, 2193.0, 2195.0, 2191.0, 2196.0, 2190.0, 2189.0, 2198.0, 2194.0, 2194.0, 2195.0, 2191.0, 2190.0, 2197.0, 2195.0, 2190.0, 2192.0, 2194.0, 2191.0, 2194.0, 2191.0, 2193.0, 2190.0, 2187.0, 2185.0, 2198.0, 2194.0, 2189.0, 2198.0, 2189.0, 2195.0, 2192.0, 2199.0, 2191.0, 2189.0, 2192.0, 2185.0, 2198.0, 2197.0, 2187.0, 2193.0, 2199.0, 2190.0, 2190.0, 2194.0, 2200.0]
    },
    "slices": {}
  }
}