{
  "AcquisitionMatrixPE": 188,
  "AcquisitionNumber": 1,
  "AcquisitionTime": "17:34:38.402500",
  "BandwidthPerPixelPhaseEncode": 19.46,
  "BaseResolution": 188,
  "ConversionSoftware": "dcm2niix",
  "ConversionSoftwareVersion": "v1.0.20180606 GCC4.8.5",
  "DelayTime": 1.2,
  "DerivedVendorReportedEchoSpacing": 0.000820013,
  "DeviceSerialNumber": "18930",
  "DwellTime": 1.9e-06,
  "EchoTime": 0.02,
  "EffectiveEchoSpacing": 0.000273338,
  "FlipAngle": 80,
  "ImageComments": "Unaliased_MB2_PE2",
  "ImageOrientationPatientDICOM": [0.999887, 0.0133051, -0.00693815, -0.010026, 0.248365, -0.968615],
  "ImageType": [
    "ORIGINAL",
    "PRIMARY",
    "M",
    "MB",
    "ND",
    "MOSAIC"
],
  "InPlanePhaseEncodingDirectionDICOM": "COL",
  "InstitutionAddress": "Oxfordlaan_55_Maastricht_Limburg_NL_6229_EV",
  "InstitutionName": "Scannexus",
  "InstitutionalDepartmentName": "MRI_7T",
  "MRAcquisitionType": "2D",
  "MagneticFieldStrength": 6.98,
  "Manufacturer": "Siemens",
  "ManufacturersModelName": "Investigational_Device_7T",
  "Modality": "MR",
  "MultibandAccelerationFactor": 2,
  "ParallelReductionFactorInPlane": 3,
  "PartialFourier": 0.75,
  "PatientPosition": "HFS",
  "PercentPhaseFOV": 100,
  "PhaseEncodingDirection": "j",
  "PhaseEncodingSteps": 141,
  "PhaseResolution": 1,
  "PixelBandwidth": 1400,
  "ProcedureStepDescription": "FeDem_Faruk",
  "ProtocolName": "cmrr_mbep2d_bold_AP_run5",
  "PulseSequenceDetails": "%CustomerSeq%_cmrr_mbep2d_bold",
  "ReceiveCoilName": "32Ch_Head_7T",
  "ReconMatrixPE": 188,
  "RepetitionTime": 2.6,
  "SAR": 0.0638405,
  "ScanOptions": "PFP_FS",
  "ScanningSequence": "EP",
  "SequenceName": "epfid2d1_188",
  "SequenceVariant": "SK_SS",
  "SeriesDescription": "cmrr_mbep2d_bold_AP_run5",
  "SeriesNumber": 15,
  "ShimSetting": [118, -208, 551, 585, 8, -215, -51, 92],
  "SliceThickness": 1.1,
  "SliceTiming": [0, 0.7325, 0.0625, 0.795, 0.1225, 0.855, 0.1825, 0.9175, 0.245, 0.9775, 0.305, 1.04, 0.3675, 1.1, 0.4275, 1.1625, 0.49, 1.2225, 0.55, 1.2825, 0.6125, 1.345, 0.6725, 0, 0.7325, 0.0625, 0.795, 0.1225, 0.855, 0.1825, 0.9175, 0.245, 0.9775, 0.305, 1.04, 0.3675, 1.1, 0.4275, 1.1625, 0.49, 1.2225, 0.55, 1.2825, 0.6125, 1.345, 0.6725],
  "SoftwareVersions": "syngo_MR_B17",
  "SpacingBetweenSlices": 1.1,
  "StationName": "MRC18930",
  "TaskName": "auditory",
  "TotalReadoutTime": 0.0511141,
  "TxRefAmp": 250,
  "dcmmeta_affine": [
    [-1.0956213474273682, -0.01098596677184105, 0.012280714698135853, 104.83442687988281],
    [-0.01457894779741764, 0.2721441388130188, -1.0654327869415283, 17.5076904296875],
    [-0.0076024411246180534, 1.0613545179367065, 0.27331697940826416, -115.14860534667969],
    [0.0, 0.0, 0.0, 1.0]
],
  "dcmmeta_reorient_transform": [
    [0.0, -1.0, 0.0, 187.0],
    [1.0, 0.0, 0.0, 0.0],
    [0.0, 0.0, 1.0, 0.0],
    [0.0, 0.0, 0.0, 1.0]
],
  "dcmmeta_shape": [188, 188, 46, 218],
  "dcmmeta_slice_dim": 2,
  "dcmmeta_version": 0.6,
  "global": {
    "const": {
      "AcquisitionMatrix": [188, 0, 0, 188],
      "AngioFlag": "N",
      "BitsAllocated": 16,
      "BitsStored": 12,
      "Columns": 1316,
      "EchoNumbers": 1,
      "EchoTime": 20.0,
      "EchoTrainLength": 1,
      "FlipAngle": 80.0,
      "HighBit": 11,
      "ImageOrientationPatient": [0.99988741240995, 0.01330505841103, -0.0069381499565, -0.0100260278566, 0.24836453586965, -0.9686147511202],
      "ImagePositionPatient": [-714.51441163638, -230.11046012075, 686.21640408658],
      "ImageType": [
        "ORIGINAL",
        "PRIMARY",
        "M",
        "MB",
        "ND",
        "MOSAIC"
],
      "ImagedNucleus": "1H",
      "ImagingFrequency": 297.205427,
      "InPlanePhaseEncodingDirection": "COL",
      "LargestImagePixelValue": 4095,
      "MRAcquisitionType": "2D",
      "MagneticFieldStrength": 6.98,
      "Manufacturer": "SIEMENS",
      "ManufacturerModelName": "Investigational_Device_7T",
      "Modality": "MR",
      "NumberOfAverages": 1.0,
      "NumberOfPhaseEncodingSteps": 141,
      "PercentPhaseFieldOfView": 100.0,
      "PercentSampling": 100.0,
      "PerformedProcedureStepStartTime": "161528.218000",
      "PhotometricInterpretation": "MONOCHROME2",
      "PixelBandwidth": 1400.0,
      "PixelRepresentation": 0,
      "PixelSpacing": [1.0957447290421, 1.0957447290421],
      "ProtocolName": "cmrr_mbep2d_bold_AP_run5",
      "RepetitionTime": 2600.0,
      "Rows": 1316,
      "SAR": 0.06384051623373,
      "SamplesPerPixel": 1,
      "ScanOptions": [
        "PFP",
        "FS"
],
      "ScanningSequence": "EP",
      "SequenceName": "epfid2d1_188",
      "SequenceVariant": [
        "SK",
        "SS"
],
      "SeriesDescription": "cmrr_mbep2d_bold_AP_run5",
      "SeriesNumber": 15,
      "SeriesTime": "173535.968000",
      "SliceLocation": -44.398086378124,
      "SliceThickness": 1.1000000238419,
      "SmallestImagePixelValue": 0,
      "SoftwareVersions": "syngo MR B17",
      "SpacingBetweenSlices": 1.1000000381174,
      "SpecificCharacterSet": "ISO_IR 100",
      "StudyID": "1",
      "StudyTime": "161528.171000",
      "TransmitCoilName": "32Ch_Head_7T",
      "VariableFlipAngleFlag": "N",
      "WindowCenterWidthExplanation": "Algo1",
      "dBdt": 0.0},
    "slices": {}
  },
  "time": {
    "samples": {
      "AcquisitionNumber": [1, 2, 3, 4, 5, 6, 7, 8, 9, 10, 11, 12, 13, 14, 15, 16, 17, 18, 19, 20, 21, 22, 23, 24, 25, 26, 27, 28, 29, 30, 31, 32, 33, 34, 35, 36, 37, 38, 39, 40, 41, 42, 43, 44, 45, 46, 47, 48, 49, 50, 51, 52, 53, 54, 55, 56, 57, 58, 59, 60, 61, 62, 63, 64, 65, 66, 67, 68, 69, 70, 71, 72, 73, 74, 75, 76, 77, 78, 79, 80, 81, 82, 83, 84, 85, 86, 87, 88, 89, 90, 91, 92, 93, 94, 95, 96, 97, 98, 99, 100, 101, 102, 103, 104, 105, 106, 107, 108, 109, 110, 111, 112, 113, 114, 115, 116, 117, 118, 119, 120, 121, 122, 123, 124, 125, 126, 127, 128, 129, 130, 131, 132, 133, 134, 135, 136, 137, 138, 139, 140, 141, 142, 143, 144, 145, 146, 147, 148, 149, 150, 151, 152, 153, 154, 155, 156, 157, 158, 159, 160, 161, 162, 163, 164, 165, 166, 167, 168, 169, 170, 171, 172, 173, 174, 175, 176, 177, 178, 179, 180, 181, 182, 183, 184, 185, 186, 187, 188, 189, 190, 191, 192, 193, 194, 195, 196, 197, 198, 199, 200, 201, 202, 203, 204, 205, 206, 207, 208, 209, 210, 211, 212, 213, 214, 215, 216, 217, 218],
      "AcquisitionTime": ["173438.402500", "173441.012500", "173443.625000", "173446.235000", "173448.845000", "173451.455000", "173454.065000", "173456.675000", "173459.287500", "173501.897500", "173504.507500", "173507.117500", "173509.727500", "173512.337500", "173514.950000", "173517.560000", "173520.170000", "173522.780000", "173525.390000", "173528.002500", "173530.612500", "173533.222500", "173535.832500", "173538.442500", "173541.052500", "173543.665000", "173546.275000", "173548.885000", "173551.495000", "173554.105000", "173556.715000", "173559.327500", "173601.937500", "173604.547500", "173607.157500", "173609.767500", "173612.380000", "173614.990000", "173617.600000", "173620.210000", "173622.820000", "173625.430000", "173628.042500", "173630.652500", "173633.262500", "173635.872500", "173638.482500", "173641.092500", "173643.705000", "173646.315000", "173648.925000", "173651.535000", "173654.145000", "173656.757500", "173659.367500", "173701.977500", "173704.587500", "173707.197500", "173709.807500", "173712.420000", "173715.030000", "173717.640000", "173720.250000", "173722.860000", "173725.470000", "173728.082500", "173730.692500", "173733.302500", "173735.912500", "173738.522500", "173741.135000", "173743.745000", "173746.355000", "173748.965000", "173751.575000", "173754.185000", "173756.797500", "173759.407500", "173802.017500", "173804.627500", "173807.237500", "173809.847500", "173812.460000", "173815.070000", "173817.680000", "173820.290000", "173822.900000", "173825.512500", "173828.122500", "173830.732500", "173833.342500", "173835.952500", "173838.562500", "173841.175000", "173843.785000", "173846.395000", "173849.005000", "173851.615000", "173854.225000", "173856.837500", "173859.447500", "173902.057500", "173904.667500", "173907.277500", "173909.890000", "173912.500000", "173915.110000", "173917.720000", "173920.330000", "173922.940000", "173925.552500", "173928.162500", "173930.772500", "173933.382500", "173935.992500", "173938.602500", "173941.215000", "173943.825000", "173946.435000", "173949.045000", "173951.655000", "173954.267500", "173956.877500", "173959.487500", "174002.097500", "174004.707500", "174007.317500", "174009.930000", "174012.540000", "174015.150000", "174017.760000", "174020.370000", "174022.980000", "174025.592500", "174028.202500", "174030.812500", "174033.422500", "174036.032500", "174038.645000", "174041.255000", "174043.865000", "174046.475000", "174049.085000", "174051.695000", "174054.307500", "174056.917500", "174059.527500", "174102.137500", "174104.747500", "174107.357500", "174109.970000", "174112.580000", "174115.190000", "174117.800000", "174120.410000", "174123.022500", "174125.632500", "174128.242500", "174130.852500", "174133.462500", "174136.072500", "174138.685000", "174141.295000", "174143.905000", "174146.515000", "174149.125000", "174151.737500", "174154.347500", "174156.957500", "174159.567500", "174202.177500", "174204.787500", "174207.400000", "174210.010000", "174212.620000", "174215.230000", "174217.840000", "174220.450000", "174223.062500", "174225.672500", "174228.282500", "174230.892500", "174233.502500", "174236.115000", "174238.725000", "174241.335000", "174243.945000", "174246.555000", "174249.165000", "174251.777500", "174254.387500", "174256.997500", "174259.607500", "174302.217500", "174304.827500", "174307.440000", "174310.050000", "174312.660000", "174315.270000", "174317.880000", "174320.492500", "174323.102500", "174325.712500", "174328.322500", "174330.932500", "174333.542500", "174336.155000", "174338.765000", "174341.375000", "174343.985000", "174346.595000", "174349.205000", "174351.817500", "174354.427500", "174357.037500", "174359.647500", "174402.257500", "174404.870000"],
      "ContentTime": ["173535.968000", "173535.968000", "173535.968000", "173535.968000", "173535.968000", "173535.984000", "173535.984000", "173535.984000", "173535.984000", "173535.984000", "173535.984000", "173535.984000", "173536.000000", "173536.000000", "173536.000000", "173536.000000", "173536.000000", "173536.000000", "173536.015000", "173536.015000", "173536.031000", "173635.968000", "173635.968000", "173635.968000", "173635.968000", "173635.968000", "173635.968000", "173635.968000", "173635.984000", "173635.984000", "173635.984000", "173635.984000", "173635.984000", "173635.984000", "173635.984000", "173636.000000", "173636.000000", "173636.000000", "173636.000000", "173636.000000", "173636.000000", "173636.000000", "173636.000000", "173636.015000", "173735.953000", "173735.968000", "173735.968000", "173735.968000", "173735.968000", "173735.968000", "173735.968000", "173735.968000", "173735.984000", "173735.984000", "173735.984000", "173735.984000", "173735.984000", "173736.000000", "173736.000000", "173736.000000", "173736.000000", "173736.000000", "173736.000000", "173736.000000", "173736.015000", "173736.015000", "173736.015000", "173835.953000", "173835.968000", "173835.968000", "173835.968000", "173835.984000", "173835.984000", "173835.984000", "173835.984000", "173835.984000", "173835.984000", "173835.984000", "173835.984000", "173836.000000", "173836.000000", "173836.000000", "173836.000000", "173836.015000", "173836.015000", "173836.015000", "173836.015000", "173836.015000", "173836.015000", "173836.015000", "173935.953000", "173935.968000", "173935.968000", "173935.968000", "173935.968000", "173935.984000", "173935.984000", "173935.984000", "173935.984000", "173935.984000", "173935.984000", "173935.984000", "173936.000000", "173936.000000", "173936.000000", "173936.000000", "173936.000000", "173936.000000", "173936.000000", "173936.000000", "173936.015000", "173936.015000", "173936.031000", "174035.953000", "174035.968000", "174035.968000", "174035.968000", "174035.968000", "174035.968000", "174035.968000", "174035.968000", "174035.968000", "174035.984000", "174035.984000", "174035.984000", "174035.984000", "174035.984000", "174035.984000", "174035.984000", "174036.000000", "174036.000000", "174036.000000", "174036.000000", "174036.000000", "174036.000000", "174036.000000", "174135.968000", "174135.968000", "174135.968000", "174135.968000", "174135.968000", "174135.968000", "174135.984000", "174135.984000", "174135.984000", "174135.984000", "174135.984000", "174136.000000", "174136.000000", "174136.031000", "174136.062000", "174136.078000", "174136.078000", "174136.093000", "174136.093000", "174136.109000", "174136.125000", "174136.125000", "174136.125000", "174235.953000", "174235.968000", "174235.968000", "174235.968000", "174235.968000", "174235.968000", "174235.968000", "174235.968000", "174235.984000", "174235.984000", "174235.984000", "174235.984000", "174235.984000", "174235.984000", "174235.984000", "174236.000000", "174236.000000", "174236.109000", "174236.109000", "174236.109000", "174236.125000", "174236.125000", "174236.125000", "174236.125000", "174335.953000", "174335.968000", "174335.968000", "174335.968000", "174335.968000", "174335.968000", "174335.968000", "174335.968000", "174335.968000", "174335.984000", "174335.984000", "174335.984000", "174335.984000", "174335.984000", "174335.984000", "174335.984000", "174336.000000", "174336.000000", "174336.000000", "174336.000000", "174336.000000", "174336.015000", "174336.015000", "174411.812000", "174411.812000", "174411.828000", "174411.828000", "174411.828000", "174411.828000", "174411.828000", "174411.843000", "174411.843000", "174411.843000", "174411.843000", "174411.843000"],
      "InstanceCreationTime": ["173535.968000", "173535.968000", "173535.968000", "173535.968000", "173535.968000", "173535.984000", "173535.984000", "173535.984000", "173535.984000", "173535.984000", "173535.984000", "173535.984000", "173536.000000", "173536.000000", "173536.000000", "173536.000000", "173536.000000", "173536.000000", "173536.015000", "173536.015000", "173536.031000", "173635.968000", "173635.968000", "173635.968000", "173635.968000", "173635.968000", "173635.968000", "173635.968000", "173635.984000", "173635.984000", "173635.984000", "173635.984000", "173635.984000", "173635.984000", "173635.984000", "173636.000000", "173636.000000", "173636.000000", "173636.000000", "173636.000000", "173636.000000", "173636.000000", "173636.000000", "173636.015000", "173735.953000", "173735.968000", "173735.968000", "173735.968000", "173735.968000", "173735.968000", "173735.968000", "173735.968000", "173735.984000", "173735.984000", "173735.984000", "173735.984000", "173735.984000", "173736.000000", "173736.000000", "173736.000000", "173736.000000", "173736.000000", "173736.000000", "173736.000000", "173736.015000", "173736.015000", "173736.015000", "173835.953000", "173835.968000", "173835.968000", "173835.968000", "173835.984000", "173835.984000", "173835.984000", "173835.984000", "173835.984000", "173835.984000", "173835.984000", "173835.984000", "173836.000000", "173836.000000", "173836.000000", "173836.000000", "173836.015000", "173836.015000", "173836.015000", "173836.015000", "173836.015000", "173836.015000", "173836.015000", "173935.953000", "173935.968000", "173935.968000", "173935.968000", "173935.968000", "173935.984000", "173935.984000", "173935.984000", "173935.984000", "173935.984000", "173935.984000", "173935.984000", "173936.000000", "173936.000000", "173936.000000", "173936.000000", "173936.000000", "173936.000000", "173936.000000", "173936.000000", "173936.015000", "173936.015000", "173936.031000", "174035.953000", "174035.968000", "174035.968000", "174035.968000", "174035.968000", "174035.968000", "174035.968000", "174035.968000", "174035.968000", "174035.984000", "174035.984000", "174035.984000", "174035.984000", "174035.984000", "174035.984000", "174035.984000", "174036.000000", "174036.000000", "174036.000000", "174036.000000", "174036.000000", "174036.000000", "174036.000000", "174135.968000", "174135.968000", "174135.968000", "174135.968000", "174135.968000", "174135.968000", "174135.984000", "174135.984000", "174135.984000", "174135.984000", "174135.984000", "174136.000000", "174136.000000", "174136.031000", "174136.062000", "174136.078000", "174136.078000", "174136.093000", "174136.093000", "174136.109000", "174136.125000", "174136.125000", "174136.125000", "174235.953000", "174235.968000", "174235.968000", "174235.968000", "174235.968000", "174235.968000", "174235.968000", "174235.968000", "174235.984000", "174235.984000", "174235.984000", "174235.984000", "174235.984000", "174235.984000", "174235.984000", "174236.000000", "174236.000000", "174236.109000", "174236.109000", "174236.109000", "174236.125000", "174236.125000", "174236.125000", "174236.125000", "174335.953000", "174335.968000", "174335.968000", "174335.968000", "174335.968000", "174335.968000", "174335.968000", "174335.968000", "174335.968000", "174335.984000", "174335.984000", "174335.984000", "174335.984000", "174335.984000", "174335.984000", "174335.984000", "174336.000000", "174336.000000", "174336.000000", "174336.000000", "174336.000000", "174336.015000", "174336.015000", "174411.812000", "174411.812000", "174411.828000", "174411.828000", "174411.828000", "174411.828000", "174411.828000", "174411.843000", "174411.843000", "174411.843000", "174411.843000", "174411.843000"],
      "InstanceNumber": [1, 2, 3, 4, 5, 6, 7, 8, 9, 10, 11, 12, 13, 14, 15, 16, 17, 18, 19, 20, 21, 22, 23, 24, 25, 26, 27, 28, 29, 30, 31, 32, 33, 34, 35, 36, 37, 38, 39, 40, 41, 42, 43, 44, 45, 46, 47, 48, 49, 50, 51, 52, 53, 54, 55, 56, 57, 58, 59, 60, 61, 62, 63, 64, 65, 66, 67, 68, 69, 70, 71, 72, 73, 74, 75, 76, 77, 78, 79, 80, 81, 82, 83, 84, 85, 86, 87, 88, 89, 90, 91, 92, 93, 94, 95, 96, 97, 98, 99, 100, 101, 102, 103, 104, 105, 106, 107, 108, 109, 110, 111, 112, 113, 114, 115, 116, 117, 118, 119, 120, 121, 122, 123, 124, 125, 126, 127, 128, 129, 130, 131, 132, 133, 134, 135, 136, 137, 138, 139, 140, 141, 142, 143, 144, 145, 146, 147, 148, 149, 150, 151, 152, 153, 154, 155, 156, 157, 158, 159, 160, 161, 162, 163, 164, 165, 166, 167, 168, 169, 170, 171, 172, 173, 174, 175, 176, 177, 178, 179, 180, 181, 182, 183, 184, 185, 186, 187, 188, 189, 190, 191, 192, 193, 194, 195, 196, 197, 198, 199, 200, 201, 202, 203, 204, 205, 206, 207, 208, 209, 210, 211, 212, 213, 214, 215, 216, 217, 218],
      "WindowCenter": [962.0, 962.0, 964.0, 961.0, 959.0, 960.0, 958.0, 961.0, 960.0, 958.0, 958.0, 960.0, 956.0, 956.0, 962.0, 958.0, 957.0, 960.0, 957.0, 959.0, 958.0, 958.0, 959.0, 957.0, 961.0, 958.0, 956.0, 959.0, 959.0, 958.0, 960.0, 959.0, 961.0, 958.0, 958.0, 959.0, 959.0, 958.0, 959.0, 958.0, 957.0, 958.0, 957.0, 955.0, 957.0, 958.0, 955.0, 956.0, 958.0, 958.0, 958.0, 956.0, 958.0, 959.0, 961.0, 958.0, 958.0, 958.0, 959.0, 959.0, 957.0, 959.0, 959.0, 957.0, 960.0, 957.0, 957.0, 958.0, 958.0, 960.0, 958.0, 957.0, 959.0, 960.0, 959.0, 961.0, 960.0, 959.0, 960.0, 961.0, 960.0, 960.0, 962.0, 958.0, 960.0, 962.0, 959.0, 960.0, 960.0, 959.0, 961.0, 959.0, 960.0, 959.0, 961.0, 959.0, 961.0, 961.0, 958.0, 961.0, 960.0, 957.0, 960.0, 960.0, 959.0, 959.0, 959.0, 962.0, 959.0, 958.0, 959.0, 959.0, 964.0, 962.0, 959.0, 959.0, 962.0, 959.0, 959.0, 961.0, 962.0, 961.0, 960.0, 961.0, 960.0, 961.0, 962.0, 959.0, 959.0, 958.0, 960.0, 959.0, 959.0, 958.0, 962.0, 961.0, 960.0, 961.0, 960.0, 961.0, 959.0, 959.0, 960.0, 963.0, 959.0, 961.0, 961.0, 959.0, 961.0, 960.0, 959.0, 963.0, 961.0, 961.0, 961.0, 962.0, 960.0, 962.0, 963.0, 962.0, 961.0, 961.0, 960.0, 962.0, 959.0, 959.0, 962.0, 961.0, 962.0, 962.0, 961.0, 960.0, 962.0, 961.0, 961.0, 963.0, 959.0, 962.0, 962.0, 960.0, 962.0, 961.0, 960.0, 965.0, 959.0, 958.0, 959.0, 961.0, 957.0, 958.0, 959.0, 957.0, 958.0, 960.0, 961.0, 961.0, 960.0, 958.0, 961.0, 959.0, 961.0, 961.0, 959.0, 960.0, 961.0, 960.0, 960.0, 959.0, 958.0, 959.0, 960.0, 960.0, 960.0, 961.0, 959.0, 959.0, 961.0, 964.0],
      "WindowWidth": [2195.0, 2193.0, 2198.0, 2188.0, 2183.0, 2188.0, 2182.0, 2191.0, 2187.0, 2180.0, 2183.0, 2186.0, 2174.0, 2176.0, 2193.0, 2180.0, 2180.0, 2187.0, 2180.0, 2184.0, 2181.0, 2182.0, 2184.0, 2179.0, 2190.0, 2181.0, 2177.0, 2187.0, 2183.0, 2183.0, 2188.0, 2186.0, 2190.0, 2181.0, 2182.0, 2184.0, 2184.0, 2182.0, 2186.0, 2182.0, 2179.0, 2183.0, 2179.0, 2172.0, 2180.0, 2183.0, 2174.0, 2177.0, 2182.0, 2183.0, 2182.0, 2176.0, 2183.0, 2186.0, 2188.0, 2183.0, 2182.0, 2183.0, 2186.0, 2185.0, 2179.0, 2187.0, 2183.0, 2179.0, 2189.0, 2177.0, 2180.0, 2182.0, 2182.0, 2189.0, 2181.0, 2179.0, 2187.0, 2187.0, 2186.0, 2192.0, 2186.0, 2184.0, 2187.0, 2190.0, 2188.0, 2188.0, 2195.0, 2181.0, 2189.0, 2193.0, 2182.0, 2189.0, 2188.0, 2183.0, 2189.0, 2183.0, 2189.0, 2185.0, 2189.0, 2185.0, 2190.0, 2188.0, 2183.0, 2191.0, 2186.0, 2181.0, 2189.0, 2187.0, 2186.0, 2185.0, 2184.0, 2193.0, 2185.0, 2181.0, 2184.0, 2184.0, 2200.0, 2191.0, 2182.0, 2186.0, 2195.0, 2183.0, 2184.0, 2191.0, 2194.0, 2188.0, 2189.0, 2192.0, 2187.0, 2192.0, 2193.0, 2185.0, 2183.0, 2182.0, 2188.0, 2185.0, 2183.0, 2182.0, 2193.0, 2189.0, 2187.0, 2191.0, 2189.0, 2188.0, 2185.0, 2186.0, 2187.0, 2194.0, 2186.0, 2192.0, 2191.0, 2185.0, 2190.0, 2186.0, 2185.0, 2196.0, 2191.0, 2191.0, 2191.0, 2193.0, 2188.0, 2192.0, 2195.0, 2191.0, 2191.0, 2189.0, 2186.0, 2195.0, 2184.0, 2186.0, 2193.0, 2190.0, 2193.0, 2193.0, 2189.0, 2188.0, 2193.0, 2191.0, 2191.0, 2195.0, 2185.0, 2193.0, 2190.0, 2187.0, 2194.0, 2188.0, 2189.0, 2203.0, 2183.0, 2181.0, 2187.0, 2188.0, 2177.0, 2181.0, 2185.0, 2177.0, 2180.0, 2187.0, 2191.0, 2190.0, 2187.0, 2180.0, 2190.0, 2185.0, 2190.0, 2189.0, 2184.0, 2186.0, 2189.0, 2187.0, 2186.0, 2184.0, 2182.0, 2185.0, 2187.0, 2186.0, 2186.0, 2189.0, 2183.0, 2185.0, 2191.0, 2197.0]
    },
    "slices": {}
  }
}