{
  "AcquisitionMatrixPE": 188,
  "AcquisitionNumber": 1,
  "AcquisitionTime": "17:00:42.152500",
  "BandwidthPerPixelPhaseEncode": 19.46,
  "BaseResolution": 188,
  "ConversionSoftware": "dcm2niix",
  "ConversionSoftwareVersion": "v1.0.20180606 GCC4.8.5",
  "DelayTime": 1.2,
  "DerivedVendorReportedEchoSpacing": 0.000820013,
  "DeviceSerialNumber": "18930",
  "DwellTime": 1.9e-06,
  "EchoTime": 0.02,
  "EffectiveEchoSpacing": 0.000273338,
  "FlipAngle": 80,
  "ImageComments": "Unaliased_MB2_PE2",
  "ImageOrientationPatientDICOM": [0.999887, 0.0133051, -0.00693815, -0.010026, 0.248365, -0.968615],
  "ImageType": [
    "ORIGINAL",
    "PRIMARY",
    "M",
    "MB",
    "ND",
    "MOSAIC"
],
  "InPlanePhaseEncodingDirectionDICOM": "COL",
  "InstitutionAddress": "Oxfordlaan_55_Maastricht_Limburg_NL_6229_EV",
  "InstitutionName": "Scannexus",
  "InstitutionalDepartmentName": "MRI_7T",
  "MRAcquisitionType": "2D",
  "MagneticFieldStrength": 6.98,
  "Manufacturer": "Siemens",
  "ManufacturersModelName": "Investigational_Device_7T",
  "Modality": "MR",
  "MultibandAccelerationFactor": 2,
  "ParallelReductionFactorInPlane": 3,
  "PartialFourier": 0.75,
  "PatientPosition": "HFS",
  "PercentPhaseFOV": 100,
  "PhaseEncodingDirection": "j",
  "PhaseEncodingSteps": 141,
  "PhaseResolution": 1,
  "PixelBandwidth": 1400,
  "ProcedureStepDescription": "FeDem_Faruk",
  "ProtocolName": "cmrr_mbep2d_bold_AP_run2",
  "PulseSequenceDetails": "%CustomerSeq%_cmrr_mbep2d_bold",
  "ReceiveCoilName": "32Ch_Head_7T",
  "ReconMatrixPE": 188,
  "RepetitionTime": 2.6,
  "SAR": 0.0639071,
  "ScanOptions": "PFP_FS",
  "ScanningSequence": "EP",
  "SequenceName": "epfid2d1_188",
  "SequenceVariant": "SK_SS",
  "SeriesDescription": "cmrr_mbep2d_bold_AP_run2",
  "SeriesNumber": 12,
  "ShimSetting": [118, -208, 551, 585, 8, -215, -51, 92],
  "SliceThickness": 1.1,
  "SliceTiming": [0, 0.735, 0.0625, 0.795, 0.1225, 0.8575, 0.185, 0.9175, 0.245, 0.9775, 0.3075, 1.04, 0.3675, 1.1, 0.4275, 1.1625, 0.49, 1.2225, 0.55, 1.285, 0.6125, 1.345, 0.6725, 0, 0.735, 0.0625, 0.795, 0.1225, 0.8575, 0.185, 0.9175, 0.245, 0.9775, 0.3075, 1.04, 0.3675, 1.1, 0.4275, 1.1625, 0.49, 1.2225, 0.55, 1.285, 0.6125, 1.345, 0.6725],
  "SoftwareVersions": "syngo_MR_B17",
  "SpacingBetweenSlices": 1.1,
  "StationName": "MRC18930",
  "TaskName": "auditory",
  "TotalReadoutTime": 0.0511141,
  "TxRefAmp": 250,
  "dcmmeta_affine": [
    [-1.0956213474273682, -0.01098596677184105, 0.012280714698135853, 104.83442687988281],
    [-0.01457894779741764, 0.2721441388130188, -1.0654327869415283, 17.5076904296875],
    [-0.0076024411246180534, 1.0613545179367065, 0.27331697940826416, -115.14860534667969],
    [0.0, 0.0, 0.0, 1.0]
],
  "dcmmeta_reorient_transform": [
    [0.0, -1.0, 0.0, 187.0],
    [1.0, 0.0, 0.0, 0.0],
    [0.0, 0.0, 1.0, 0.0],
    [0.0, 0.0, 0.0, 1.0]
],
  "dcmmeta_shape": [188, 188, 46, 218],
  "dcmmeta_slice_dim": 2,
  "dcmmeta_version": 0.6,
  "global": {
    "const": {
      "AcquisitionMatrix": [188, 0, 0, 188],
      "AngioFlag": "N",
      "BitsAllocated": 16,
      "BitsStored": 12,
      "Columns": 1316,
      "EchoNumbers": 1,
      "EchoTime": 20.0,
      "EchoTrainLength": 1,
      "FlipAngle": 80.0,
      "HighBit": 11,
      "ImageOrientationPatient": [0.99988741240995, 0.01330505841103, -0.0069381499565, -0.0100260278566, 0.24836453586965, -0.9686147511202],
      "ImagePositionPatient": [-714.51441163638, -230.11046012075, 686.21640408658],
      "ImageType": [
        "ORIGINAL",
        "PRIMARY",
        "M",
        "MB",
        "ND",
        "MOSAIC"
],
      "ImagedNucleus": "1H",
      "ImagingFrequency": 297.205416,
      "InPlanePhaseEncodingDirection": "COL",
      "LargestImagePixelValue": 4095,
      "MRAcquisitionType": "2D",
      "MagneticFieldStrength": 6.98,
      "Manufacturer": "SIEMENS",
      "ManufacturerModelName": "Investigational_Device_7T",
      "Modality": "MR",
      "NumberOfAverages": 1.0,
      "NumberOfPhaseEncodingSteps": 141,
      "PercentPhaseFieldOfView": 100.0,
      "PercentSampling": 100.0,
      "PerformedProcedureStepStartTime": "161528.218000",
      "PhotometricInterpretation": "MONOCHROME2",
      "PixelBandwidth": 1400.0,
      "PixelRepresentation": 0,
      "PixelSpacing": [1.0957447290421, 1.0957447290421],
      "ProtocolName": "cmrr_mbep2d_bold_AP_run2",
      "RepetitionTime": 2600.0,
      "Rows": 1316,
      "SAR": 0.06390708120884,
      "SamplesPerPixel": 1,
      "ScanOptions": [
        "PFP",
        "FS"
],
      "ScanningSequence": "EP",
      "SequenceName": "epfid2d1_188",
      "SequenceVariant": [
        "SK",
        "SS"
],
      "SeriesDescription": "cmrr_mbep2d_bold_AP_run2",
      "SeriesNumber": 12,
      "SeriesTime": "170135.968000",
      "SliceLocation": -44.398086378124,
      "SliceThickness": 1.1000000238419,
      "SmallestImagePixelValue": 0,
      "SoftwareVersions": "syngo MR B17",
      "SpacingBetweenSlices": 1.1000000381174,
      "SpecificCharacterSet": "ISO_IR 100",
      "StudyID": "1",
      "StudyTime": "161528.171000",
      "TransmitCoilName": "32Ch_Head_7T",
      "VariableFlipAngleFlag": "N",
      "WindowCenterWidthExplanation": "Algo1",
      "dBdt": 0.0},
    "slices": {}
  },
  "time": {
    "samples": {
      "AcquisitionNumber": [1, 2, 3, 4, 5, 6, 7, 8, 9, 10, 11, 12, 13, 14, 15, 16, 17, 18, 19, 20, 21, 22, 23, 24, 25, 26, 27, 28, 29, 30, 31, 32, 33, 34, 35, 36, 37, 38, 39, 40, 41, 42, 43, 44, 45, 46, 47, 48, 49, 50, 51, 52, 53, 54, 55, 56, 57, 58, 59, 60, 61, 62, 63, 64, 65, 66, 67, 68, 69, 70, 71, 72, 73, 74, 75, 76, 77, 78, 79, 80, 81, 82, 83, 84, 85, 86, 87, 88, 89, 90, 91, 92, 93, 94, 95, 96, 97, 98, 99, 100, 101, 102, 103, 104, 105, 106, 107, 108, 109, 110, 111, 112, 113, 114, 115, 116, 117, 118, 119, 120, 121, 122, 123, 124, 125, 126, 127, 128, 129, 130, 131, 132, 133, 134, 135, 136, 137, 138, 139, 140, 141, 142, 143, 144, 145, 146, 147, 148, 149, 150, 151, 152, 153, 154, 155, 156, 157, 158, 159, 160, 161, 162, 163, 164, 165, 166, 167, 168, 169, 170, 171, 172, 173, 174, 175, 176, 177, 178, 179, 180, 181, 182, 183, 184, 185, 186, 187, 188, 189, 190, 191, 192, 193, 194, 195, 196, 197, 198, 199, 200, 201, 202, 203, 204, 205, 206, 207, 208, 209, 210, 211, 212, 213, 214, 215, 216, 217, 218],
      "AcquisitionTime": ["170042.152500", "170044.765000", "170047.375000", "170049.985000", "170052.595000", "170055.205000", "170057.815000", "170100.427500", "170103.037500", "170105.647500", "170108.257500", "170110.867500", "170113.477500", "170116.090000", "170118.700000", "170121.310000", "170123.920000", "170126.530000", "170129.142500", "170131.752500", "170134.362500", "170136.972500", "170139.582500", "170142.192500", "170144.805000", "170147.415000", "170150.025000", "170152.635000", "170155.245000", "170157.855000", "170200.467500", "170203.077500", "170205.687500", "170208.297500", "170210.907500", "170213.520000", "170216.130000", "170218.740000", "170221.350000", "170223.960000", "170226.570000", "170229.182500", "170231.792500", "170234.402500", "170237.012500", "170239.622500", "170242.232500", "170244.845000", "170247.455000", "170250.065000", "170252.675000", "170255.285000", "170257.897500", "170300.507500", "170303.117500", "170305.727500", "170308.337500", "170310.947500", "170313.560000", "170316.170000", "170318.780000", "170321.390000", "170324.000000", "170326.610000", "170329.222500", "170331.832500", "170334.442500", "170337.052500", "170339.662500", "170342.275000", "170344.885000", "170347.495000", "170350.105000", "170352.715000", "170355.325000", "170357.937500", "170400.547500", "170403.157500", "170405.767500", "170408.377500", "170410.987500", "170413.600000", "170416.210000", "170418.820000", "170421.430000", "170424.040000", "170426.652500", "170429.262500", "170431.872500", "170434.482500", "170437.092500", "170439.702500", "170442.315000", "170444.925000", "170447.535000", "170450.145000", "170452.755000", "170455.365000", "170457.977500", "170500.587500", "170503.197500", "170505.807500", "170508.417500", "170511.030000", "170513.640000", "170516.250000", "170518.860000", "170521.470000", "170524.080000", "170526.692500", "170529.302500", "170531.912500", "170534.522500", "170537.132500", "170539.742500", "170542.355000", "170544.965000", "170547.575000", "170550.185000", "170552.795000", "170555.407500", "170558.017500", "170600.627500", "170603.237500", "170605.847500", "170608.457500", "170611.070000", "170613.680000", "170616.290000", "170618.900000", "170621.510000", "170624.120000", "170626.732500", "170629.342500", "170631.952500", "170634.562500", "170637.172500", "170639.785000", "170642.395000", "170645.005000", "170647.615000", "170650.225000", "170652.835000", "170655.447500", "170658.057500", "170700.667500", "170703.277500", "170705.887500", "170708.497500", "170711.110000", "170713.720000", "170716.330000", "170718.940000", "170721.550000", "170724.162500", "170726.772500", "170729.382500", "170731.992500", "170734.602500", "170737.212500", "170739.825000", "170742.435000", "170745.045000", "170747.655000", "170750.265000", "170752.875000", "170755.487500", "170758.097500", "170800.707500", "170803.317500", "170805.927500", "170808.540000", "170811.150000", "170813.760000", "170816.370000", "170818.980000", "170821.590000", "170824.202500", "170826.812500", "170829.422500", "170832.032500", "170834.642500", "170837.252500", "170839.865000", "170842.475000", "170845.085000", "170847.695000", "170850.305000", "170852.917500", "170855.527500", "170858.137500", "170900.747500", "170903.357500", "170905.967500", "170908.580000", "170911.190000", "170913.800000", "170916.410000", "170919.020000", "170921.632500", "170924.242500", "170926.852500", "170929.462500", "170932.072500", "170934.682500", "170937.295000", "170939.905000", "170942.515000", "170945.125000", "170947.735000", "170950.345000", "170952.957500", "170955.567500", "170958.177500", "171000.787500", "171003.397500", "171006.010000", "171008.620000"],
      "ContentTime": ["170135.968000", "170135.968000", "170135.968000", "170135.984000", "170135.984000", "170135.984000", "170135.984000", "170135.984000", "170136.000000", "170136.000000", "170136.000000", "170136.000000", "170136.000000", "170136.000000", "170136.000000", "170136.000000", "170136.015000", "170136.015000", "170136.015000", "170136.015000", "170235.953000", "170235.968000", "170235.968000", "170235.968000", "170235.968000", "170235.968000", "170235.968000", "170235.968000", "170235.968000", "170235.984000", "170235.984000", "170235.984000", "170235.984000", "170235.984000", "170236.000000", "170236.000000", "170236.000000", "170236.000000", "170236.000000", "170236.000000", "170236.000000", "170236.015000", "170236.015000", "170335.953000", "170335.968000", "170335.968000", "170335.968000", "170335.968000", "170335.968000", "170335.968000", "170335.968000", "170335.984000", "170335.984000", "170335.984000", "170335.984000", "170335.984000", "170335.984000", "170335.984000", "170336.000000", "170336.000000", "170336.000000", "170336.000000", "170336.000000", "170336.015000", "170336.015000", "170336.015000", "170435.953000", "170435.968000", "170435.968000", "170435.968000", "170435.968000", "170435.968000", "170435.968000", "170435.968000", "170435.968000", "170435.984000", "170435.984000", "170435.984000", "170435.984000", "170435.984000", "170435.984000", "170435.984000", "170436.000000", "170436.000000", "170436.000000", "170436.000000", "170436.000000", "170436.000000", "170436.000000", "170535.953000", "170535.968000", "170535.968000", "170535.968000", "170535.968000", "170535.968000", "170535.968000", "170535.968000", "170535.968000", "170535.984000", "170535.984000", "170535.984000", "170535.984000", "170535.984000", "170535.984000", "170535.984000", "170536.000000", "170536.000000", "170536.000000", "170536.000000", "170536.000000", "170536.000000", "170536.015000", "170635.953000", "170635.968000", "170635.968000", "170635.968000", "170635.968000", "170635.968000", "170635.968000", "170635.968000", "170635.984000", "170635.984000", "170635.984000", "170635.984000", "170635.984000", "170636.000000", "170636.000000", "170636.000000", "170636.000000", "170636.000000", "170636.000000", "170636.000000", "170636.015000", "170636.015000", "170636.015000", "170735.953000", "170735.968000", "170735.968000", "170735.968000", "170735.968000", "170735.984000", "170735.984000", "170735.984000", "170735.984000", "170735.984000", "170735.984000", "170735.984000", "170736.000000", "170736.000000", "170736.000000", "170736.000000", "170736.000000", "170736.000000", "170736.000000", "170736.015000", "170736.015000", "170736.015000", "170736.015000", "170835.953000", "170835.968000", "170835.968000", "170835.984000", "170835.984000", "170835.984000", "170835.984000", "170835.984000", "170835.984000", "170835.984000", "170835.984000", "170836.000000", "170836.000000", "170836.000000", "170836.000000", "170836.000000", "170836.000000", "170836.000000", "170836.015000", "170836.015000", "170836.015000", "170836.015000", "170836.015000", "170935.953000", "170935.968000", "170935.968000", "170935.968000", "170935.968000", "170935.968000", "170935.968000", "170935.968000", "170935.968000", "170935.984000", "170935.984000", "170935.984000", "170935.984000", "170935.984000", "170935.984000", "170935.984000", "170936.000000", "170936.000000", "170936.000000", "170936.000000", "170936.000000", "170936.000000", "170936.000000", "171011.687000", "171011.687000", "171011.687000", "171011.687000", "171011.687000", "171011.703000", "171011.703000", "171011.703000", "171011.703000", "171011.703000", "171011.703000", "171011.703000", "171011.718000", "171011.718000"],
      "InstanceCreationTime": ["170135.968000", "170135.968000", "170135.968000", "170135.984000", "170135.984000", "170135.984000", "170135.984000", "170135.984000", "170136.000000", "170136.000000", "170136.000000", "170136.000000", "170136.000000", "170136.000000", "170136.000000", "170136.000000", "170136.015000", "170136.015000", "170136.015000", "170136.015000", "170235.953000", "170235.968000", "170235.968000", "170235.968000", "170235.968000", "170235.968000", "170235.968000", "170235.968000", "170235.968000", "170235.984000", "170235.984000", "170235.984000", "170235.984000", "170235.984000", "170236.000000", "170236.000000", "170236.000000", "170236.000000", "170236.000000", "170236.000000", "170236.000000", "170236.015000", "170236.015000", "170335.953000", "170335.968000", "170335.968000", "170335.968000", "170335.968000", "170335.968000", "170335.968000", "170335.968000", "170335.984000", "170335.984000", "170335.984000", "170335.984000", "170335.984000", "170335.984000", "170335.984000", "170336.000000", "170336.000000", "170336.000000", "170336.000000", "170336.000000", "170336.015000", "170336.015000", "170336.015000", "170435.953000", "170435.968000", "170435.968000", "170435.968000", "170435.968000", "170435.968000", "170435.968000", "170435.968000", "170435.968000", "170435.984000", "170435.984000", "170435.984000", "170435.984000", "170435.984000", "170435.984000", "170435.984000", "170436.000000", "170436.000000", "170436.000000", "170436.000000", "170436.000000", "170436.000000", "170436.000000", "170535.953000", "170535.968000", "170535.968000", "170535.968000", "170535.968000", "170535.968000", "170535.968000", "170535.968000", "170535.968000", "170535.984000", "170535.984000", "170535.984000", "170535.984000", "170535.984000", "170535.984000", "170535.984000", "170536.000000", "170536.000000", "170536.000000", "170536.000000", "170536.000000", "170536.000000", "170536.015000", "170635.953000", "170635.968000", "170635.968000", "170635.968000", "170635.968000", "170635.968000", "170635.968000", "170635.968000", "170635.984000", "170635.984000", "170635.984000", "170635.984000", "170635.984000", "170636.000000", "170636.000000", "170636.000000", "170636.000000", "170636.000000", "170636.000000", "170636.000000", "170636.015000", "170636.015000", "170636.015000", "170735.953000", "170735.968000", "170735.968000", "170735.968000", "170735.968000", "170735.984000", "170735.984000", "170735.984000", "170735.984000", "170735.984000", "170735.984000", "170735.984000", "170736.000000", "170736.000000", "170736.000000", "170736.000000", "170736.000000", "170736.000000", "170736.000000", "170736.015000", "170736.015000", "170736.015000", "170736.015000", "170835.953000", "170835.968000", "170835.968000", "170835.984000", "170835.984000", "170835.984000", "170835.984000", "170835.984000", "170835.984000", "170835.984000", "170835.984000", "170836.000000", "170836.000000", "170836.000000", "170836.000000", "170836.000000", "170836.000000", "170836.000000", "170836.015000", "170836.015000", "170836.015000", "170836.015000", "170836.015000", "170935.953000", "170935.968000", "170935.968000", "170935.968000", "170935.968000", "170935.968000", "170935.968000", "170935.968000", "170935.968000", "170935.984000", "170935.984000", "170935.984000", "170935.984000", "170935.984000", "170935.984000", "170935.984000", "170936.000000", "170936.000000", "170936.000000", "170936.000000", "170936.000000", "170936.000000", "170936.000000", "171011.687000", "171011.687000", "171011.687000", "171011.687000", "171011.687000", "171011.703000", "171011.703000", "171011.703000", "171011.703000", "171011.703000", "171011.703000", "171011.703000", "171011.718000", "171011.718000"],
      "InstanceNumber": [1, 2, 3, 4, 5, 6, 7, 8, 9, 10, 11, 12, 13, 14, 15, 16, 17, 18, 19, 20, 21, 22, 23, 24, 25, 26, 27, 28, 29, 30, 31, 32, 33, 34, 35, 36, 37, 38, 39, 40, 41, 42, 43, 44, 45, 46, 47, 48, 49, 50, 51, 52, 53, 54, 55, 56, 57, 58, 59, 60, 61, 62, 63, 64, 65, 66, 67, 68, 69, 70, 71, 72, 73, 74, 75, 76, 77, 78, 79, 80, 81, 82, 83, 84, 85, 86, 87, 88, 89, 90, 91, 92, 93, 94, 95, 96, 97, 98, 99, 100, 101, 102, 103, 104, 105, 106, 107, 108, 109, 110, 111, 112, 113, 114, 115, 116, 117, 118, 119, 120, 121, 122, 123, 124, 125, 126, 127, 128, 129, 130, 131, 132, 133, 134, 135, 136, 137, 138, 139, 140, 141, 142, 143, 144, 145, 146, 147, 148, 149, 150, 151, 152, 153, 154, 155, 156, 157, 158, 159, 160, 161, 162, 163, 164, 165, 166, 167, 168, 169, 170, 171, 172, 173, 174, 175, 176, 177, 178, 179, 180, 181, 182, 183, 184, 185, 186, 187, 188, 189, 190, 191, 192, 193, 194, 195, 196, 197, 198, 199, 200, 201, 202, 203, 204, 205, 206, 207, 208, 209, 210, 211, 212, 213, 214, 215, 216, 217, 218],
      "WindowCenter": [955.0, 952.0, 952.0, 951.0, 950.0, 952.0, 951.0, 949.0, 954.0, 955.0, 953.0, 953.0, 952.0, 952.0, 956.0, 953.0, 951.0, 954.0, 952.0, 953.0, 954.0, 952.0, 955.0, 958.0, 955.0, 952.0, 954.0, 953.0, 953.0, 955.0, 954.0, 955.0, 953.0, 952.0, 955.0, 959.0, 953.0, 953.0, 955.0, 955.0, 954.0, 953.0, 954.0, 958.0, 953.0, 955.0, 956.0, 952.0, 953.0, 955.0, 951.0, 954.0, 953.0, 952.0, 955.0, 953.0, 953.0, 956.0, 959.0, 955.0, 954.0, 952.0, 953.0, 955.0, 952.0, 952.0, 951.0, 954.0, 958.0, 956.0, 952.0, 954.0, 955.0, 957.0, 952.0, 952.0, 954.0, 954.0, 956.0, 953.0, 954.0, 955.0, 958.0, 953.0, 955.0, 958.0, 957.0, 954.0, 954.0, 957.0, 954.0, 953.0, 954.0, 953.0, 952.0, 956.0, 956.0, 956.0, 956.0, 953.0, 954.0, 955.0, 953.0, 955.0, 955.0, 957.0, 954.0, 956.0, 954.0, 956.0, 956.0, 953.0, 953.0, 953.0, 958.0, 953.0, 955.0, 957.0, 956.0, 953.0, 956.0, 959.0, 953.0, 955.0, 958.0, 955.0, 952.0, 956.0, 957.0, 953.0, 953.0, 955.0, 957.0, 953.0, 953.0, 955.0, 955.0, 952.0, 954.0, 955.0, 956.0, 958.0, 957.0, 953.0, 953.0, 956.0, 957.0, 955.0, 956.0, 955.0, 957.0, 958.0, 953.0, 953.0, 957.0, 954.0, 951.0, 953.0, 955.0, 956.0, 958.0, 957.0, 957.0, 953.0, 955.0, 958.0, 953.0, 952.0, 954.0, 952.0, 948.0, 955.0, 958.0, 952.0, 952.0, 953.0, 950.0, 952.0, 955.0, 955.0, 954.0, 953.0, 956.0, 953.0, 955.0, 958.0, 954.0, 958.0, 958.0, 955.0, 955.0, 959.0, 961.0, 957.0, 957.0, 958.0, 956.0, 958.0, 956.0, 958.0, 960.0, 960.0, 960.0, 958.0, 958.0, 960.0, 956.0, 956.0, 958.0, 953.0, 954.0, 958.0, 958.0, 954.0, 958.0, 957.0, 952.0, 960.0],
      "WindowWidth": [2171.0, 2164.0, 2165.0, 2161.0, 2159.0, 2166.0, 2161.0, 2156.0, 2173.0, 2174.0, 2168.0, 2168.0, 2166.0, 2163.0, 2177.0, 2166.0, 2163.0, 2172.0, 2164.0, 2168.0, 2169.0, 2165.0, 2174.0, 2183.0, 2173.0, 2165.0, 2171.0, 2169.0, 2169.0, 2175.0, 2172.0, 2173.0, 2168.0, 2165.0, 2176.0, 2185.0, 2167.0, 2169.0, 2174.0, 2173.0, 2168.0, 2167.0, 2174.0, 2181.0, 2166.0, 2174.0, 2175.0, 2164.0, 2168.0, 2172.0, 2161.0, 2172.0, 2168.0, 2163.0, 2175.0, 2168.0, 2170.0, 2179.0, 2184.0, 2172.0, 2170.0, 2163.0, 2168.0, 2175.0, 2164.0, 2164.0, 2163.0, 2172.0, 2184.0, 2174.0, 2166.0, 2170.0, 2174.0, 2179.0, 2164.0, 2164.0, 2172.0, 2172.0, 2175.0, 2170.0, 2171.0, 2176.0, 2182.0, 2166.0, 2175.0, 2182.0, 2180.0, 2168.0, 2170.0, 2181.0, 2168.0, 2166.0, 2172.0, 2166.0, 2165.0, 2177.0, 2176.0, 2177.0, 2176.0, 2168.0, 2172.0, 2172.0, 2167.0, 2173.0, 2174.0, 2180.0, 2170.0, 2179.0, 2170.0, 2178.0, 2176.0, 2168.0, 2166.0, 2167.0, 2181.0, 2166.0, 2173.0, 2181.0, 2176.0, 2168.0, 2177.0, 2184.0, 2167.0, 2175.0, 2183.0, 2172.0, 2165.0, 2176.0, 2178.0, 2165.0, 2167.0, 2176.0, 2181.0, 2167.0, 2167.0, 2174.0, 2173.0, 2165.0, 2171.0, 2174.0, 2177.0, 2182.0, 2177.0, 2167.0, 2168.0, 2179.0, 2178.0, 2173.0, 2177.0, 2172.0, 2180.0, 2183.0, 2165.0, 2167.0, 2179.0, 2170.0, 2161.0, 2168.0, 2174.0, 2178.0, 2181.0, 2179.0, 2179.0, 2167.0, 2173.0, 2182.0, 2166.0, 2165.0, 2170.0, 2163.0, 2153.0, 2175.0, 2184.0, 2162.0, 2166.0, 2168.0, 2159.0, 2165.0, 2174.0, 2173.0, 2168.0, 2166.0, 2176.0, 2168.0, 2175.0, 2183.0, 2171.0, 2181.0, 2181.0, 2172.0, 2173.0, 2186.0, 2191.0, 2179.0, 2179.0, 2182.0, 2175.0, 2182.0, 2175.0, 2182.0, 2188.0, 2188.0, 2187.0, 2182.0, 2182.0, 2186.0, 2174.0, 2178.0, 2183.0, 2169.0, 2173.0, 2183.0, 2180.0, 2172.0, 2184.0, 2179.0, 2166.0, 2189.0]
    },
    "slices": {}
  }
}