{
  "AcquisitionMatrixPE": 188,
  "AcquisitionNumber": 1,
  "AcquisitionTime": "13:47:8.755000",
  "BandwidthPerPixelPhaseEncode": 19.46,
  "BaseResolution": 188,
  "ConversionSoftware": "dcm2niix",
  "ConversionSoftwareVersion": "v1.0.20180606 GCC4.8.5",
  "DerivedVendorReportedEchoSpacing": 0.000820013,
  "DeviceSerialNumber": "18930",
  "DwellTime": 1.9e-06,
  "EchoTime": 0.02,
  "EffectiveEchoSpacing": 0.000273338,
  "FlipAngle": 75,
  "ImageComments": "Unaliased_MB2_PE2",
  "ImageOrientationPatientDICOM": [0.999775, 0.0116018, -0.0177858, -0.0202383, 0.266958, -0.963496],
  "ImageType": [
    "ORIGINAL",
    "PRIMARY",
    "M",
    "MB",
    "ND",
    "MOSAIC"
],
  "InPlanePhaseEncodingDirectionDICOM": "COL",
  "InstitutionAddress": "Oxfordlaan_55_Maastricht_753AAF_Limburg_NL_6229_EV",
  "InstitutionName": "Scannexus",
  "InstitutionalDepartmentName": "MRI_7T",
  "MRAcquisitionType": "2D",
  "MagneticFieldStrength": 6.98,
  "Manufacturer": "Siemens",
  "ManufacturersModelName": "Investigational_Device_7T",
  "Modality": "MR",
  "MultibandAccelerationFactor": 2,
  "ParallelReductionFactorInPlane": 3,
  "PartialFourier": 0.75,
  "PatientPosition": "HFS",
  "PercentPhaseFOV": 100,
  "PhaseEncodingDirection": "j",
  "PhaseEncodingSteps": 141,
  "PhaseResolution": 1,
  "PixelBandwidth": 1400,
  "ProcedureStepDescription": "FeDem_Faruk",
  "ProtocolName": "cmrr_mbep2d_bold_rest",
  "PulseSequenceDetails": "%CustomerSeq%_cmrr_mbep2d_bold",
  "ReceiveCoilName": "32Ch_Head_7T",
  "ReconMatrixPE": 188,
  "RepetitionTime": 1.5,
  "SAR": 0.119729,
  "ScanOptions": "PFP_FS",
  "ScanningSequence": "EP",
  "SequenceName": "epfid2d1_188",
  "SequenceVariant": "SK_SS",
  "SeriesDescription": "cmrr_mbep2d_bold_rest",
  "SeriesNumber": 26,
  "ShimSetting": [87, -123, 337, 312, 5, 309, 204, 163],
  "SliceThickness": 1.1,
  "SliceTiming": [0, 0.785, 0.0625, 0.845, 0.1225, 0.905, 0.1825, 0.965, 0.2425, 1.025, 0.3025, 1.085, 0.3625, 1.145, 0.4225, 1.205, 0.4825, 1.265, 0.5425, 1.325, 0.6025, 1.3875, 0.6625, 1.4475, 0.725, 0, 0.785, 0.0625, 0.845, 0.1225, 0.905, 0.1825, 0.965, 0.2425, 1.025, 0.3025, 1.085, 0.3625, 1.145, 0.4225, 1.205, 0.4825, 1.265, 0.5425, 1.325, 0.6025, 1.3875, 0.6625, 1.4475, 0.725],
  "SoftwareVersions": "syngo_MR_B17",
  "SpacingBetweenSlices": 1.1,
  "StationName": "MRC18930",
  "TaskName": "rest",
  "TotalReadoutTime": 0.0511141,
  "TxRefAmp": 200,
  "dcmmeta_affine": [
    [-1.0954976081848145, -0.022175999358296394, 0.007073187734931707, 102.36293029785156],
    [-0.012712562456727028, 0.2925182580947876, -1.060002088546753, 30.11244010925293],
    [-0.01948869787156582, 1.0557451248168945, 0.2938463091850281, -108.30784606933594],
    [0.0, 0.0, 0.0, 1.0]
],
  "dcmmeta_reorient_transform": [
    [0.0, -1.0, 0.0, 187.0],
    [1.0, 0.0, 0.0, 0.0],
    [0.0, 0.0, 1.0, 0.0],
    [0.0, 0.0, 0.0, 1.0]
],
  "dcmmeta_shape": [188, 188, 50, 400],
  "dcmmeta_slice_dim": 2,
  "dcmmeta_version": 0.6,
  "global": {
    "const": {
      "AcquisitionMatrix": [188, 0, 0, 188],
      "AngioFlag": "N",
      "BitsAllocated": 16,
      "BitsStored": 12,
      "Columns": 1504,
      "EchoNumbers": 1,
      "EchoTime": 20.0,
      "EchoTrainLength": 1,
      "FlipAngle": 75.0,
      "HighBit": 11,
      "ImageOrientationPatient": [0.99977450684197, 0.01160175575383, -0.0177858014249, -0.020238289817, 0.26695840130068, -0.963495523394],
      "ImagePositionPatient": [-804.46166458527, -285.65523783302, 796.62036091439],
      "ImageType": [
        "ORIGINAL",
        "PRIMARY",
        "M",
        "MB",
        "ND",
        "MOSAIC"
],
      "ImagedNucleus": "1H",
      "ImagingFrequency": 297.205639,
      "InPlanePhaseEncodingDirection": "COL",
      "LargestImagePixelValue": 4095,
      "MRAcquisitionType": "2D",
      "MagneticFieldStrength": 6.98,
      "Manufacturer": "SIEMENS",
      "ManufacturerModelName": "Investigational_Device_7T",
      "Modality": "MR",
      "NumberOfAverages": 1.0,
      "NumberOfPhaseEncodingSteps": 141,
      "PercentPhaseFieldOfView": 100.0,
      "PercentSampling": 100.0,
      "PerformedProcedureStepStartTime": "114444.750000",
      "PhotometricInterpretation": "MONOCHROME2",
      "PixelBandwidth": 1400.0,
      "PixelRepresentation": 0,
      "PixelSpacing": [1.0957447290421, 1.0957447290421],
      "ProtocolName": "cmrr_mbep2d_bold_rest",
      "RepetitionTime": 1500.0,
      "Rows": 1504,
      "SAR": 0.11972855151372,
      "SamplesPerPixel": 1,
      "ScanOptions": [
        "PFP",
        "FS"
],
      "ScanningSequence": "EP",
      "SequenceName": "epfid2d1_188",
      "SequenceVariant": [
        "SK",
        "SS"
],
      "SeriesDescription": "cmrr_mbep2d_bold_rest",
      "SeriesNumber": 26,
      "SeriesTime": "134720.125000",
      "SliceLocation": -57.291888180998,
      "SliceThickness": 1.1000000238419,
      "SmallestImagePixelValue": 0,
      "SoftwareVersions": "syngo MR B17",
      "SpacingBetweenSlices": 1.0999999992033,
      "SpecificCharacterSet": "ISO_IR 100",
      "StudyID": "1",
      "StudyTime": "114444.687000",
      "TransmitCoilName": "32Ch_Head_7T",
      "VariableFlipAngleFlag": "N",
      "WindowCenterWidthExplanation": "Algo1",
      "dBdt": 0.0},
    "slices": {}
  },
  "time": {
    "samples": {
      "AcquisitionNumber": [1, 2, 3, 4, 5, 6, 7, 8, 9, 10, 11, 12, 13, 14, 15, 16, 17, 18, 19, 20, 21, 22, 23, 24, 25, 26, 27, 28, 29, 30, 31, 32, 33, 34, 35, 36, 37, 38, 39, 40, 41, 42, 43, 44, 45, 46, 47, 48, 49, 50, 51, 52, 53, 54, 55, 56, 57, 58, 59, 60, 61, 62, 63, 64, 65, 66, 67, 68, 69, 70, 71, 72, 73, 74, 75, 76, 77, 78, 79, 80, 81, 82, 83, 84, 85, 86, 87, 88, 89, 90, 91, 92, 93, 94, 95, 96, 97, 98, 99, 100, 101, 102, 103, 104, 105, 106, 107, 108, 109, 110, 111, 112, 113, 114, 115, 116, 117, 118, 119, 120, 121, 122, 123, 124, 125, 126, 127, 128, 129, 130, 131, 132, 133, 134, 135, 136, 137, 138, 139, 140, 141, 142, 143, 144, 145, 146, 147, 148, 149, 150, 151, 152, 153, 154, 155, 156, 157, 158, 159, 160, 161, 162, 163, 164, 165, 166, 167, 168, 169, 170, 171, 172, 173, 174, 175, 176, 177, 178, 179, 180, 181, 182, 183, 184, 185, 186, 187, 188, 189, 190, 191, 192, 193, 194, 195, 196, 197, 198, 199, 200, 201, 202, 203, 204, 205, 206, 207, 208, 209, 210, 211, 212, 213, 214, 215, 216, 217, 218, 219, 220, 221, 222, 223, 224, 225, 226, 227, 228, 229, 230, 231, 232, 233, 234, 235, 236, 237, 238, 239, 240, 241, 242, 243, 244, 245, 246, 247, 248, 249, 250, 251, 252, 253, 254, 255, 256, 257, 258, 259, 260, 261, 262, 263, 264, 265, 266, 267, 268, 269, 270, 271, 272, 273, 274, 275, 276, 277, 278, 279, 280, 281, 282, 283, 284, 285, 286, 287, 288, 289, 290, 291, 292, 293, 294, 295, 296, 297, 298, 299, 300, 301, 302, 303, 304, 305, 306, 307, 308, 309, 310, 311, 312, 313, 314, 315, 316, 317, 318, 319, 320, 321, 322, 323, 324, 325, 326, 327, 328, 329, 330, 331, 332, 333, 334, 335, 336, 337, 338, 339, 340, 341, 342, 343, 344, 345, 346, 347, 348, 349, 350, 351, 352, 353, 354, 355, 356, 357, 358, 359, 360, 361, 362, 363, 364, 365, 366, 367, 368, 369, 370, 371, 372, 373, 374, 375, 376, 377, 378, 379, 380, 381, 382, 383, 384, 385, 386, 387, 388, 389, 390, 391, 392, 393, 394, 395, 396, 397, 398, 399, 400],
      "AcquisitionTime": ["134708.755000", "134710.262500", "134711.767500", "134713.275000", "134714.780000", "134716.287500", "134717.792500", "134719.297500", "134720.805000", "134722.310000", "134723.817500", "134725.322500", "134726.827500", "134728.335000", "134729.840000", "134731.347500", "134732.852500", "134734.357500", "134735.865000", "134737.370000", "134738.877500", "134740.382500", "134741.887500", "134743.395000", "134744.900000", "134746.407500", "134747.912500", "134749.420000", "134750.925000", "134752.430000", "134753.937500", "134755.442500", "134756.950000", "134758.455000", "134759.960000", "134801.467500", "134802.972500", "134804.480000", "134805.985000", "134807.490000", "134808.997500", "134810.502500", "134812.010000", "134813.515000", "134815.020000", "134816.527500", "134818.032500", "134819.540000", "134821.045000", "134822.552500", "134824.057500", "134825.562500", "134827.070000", "134828.575000", "134830.082500", "134831.587500", "134833.092500", "134834.600000", "134836.105000", "134837.612500", "134839.117500", "134840.622500", "134842.130000", "134843.635000", "134845.142500", "134846.647500", "134848.155000", "134849.660000", "134851.165000", "134852.672500", "134854.177500", "134855.685000", "134857.190000", "134858.695000", "134900.202500", "134901.707500", "134903.215000", "134904.720000", "134906.225000", "134907.732500", "134909.237500", "134910.745000", "134912.250000", "134913.755000", "134915.262500", "134916.767500", "134918.275000", "134919.780000", "134921.287500", "134922.792500", "134924.297500", "134925.805000", "134927.310000", "134928.817500", "134930.322500", "134931.827500", "134933.335000", "134934.840000", "134936.347500", "134937.852500", "134939.357500", "134940.865000", "134942.370000", "134943.877500", "134945.382500", "134946.887500", "134948.395000", "134949.900000", "134951.407500", "134952.912500", "134954.420000", "134955.925000", "134957.430000", "134958.937500", "135000.442500", "135001.950000", "135003.455000", "135004.960000", "135006.467500", "135007.972500", "135009.480000", "135010.985000", "135012.490000", "135013.997500", "135015.502500", "135017.010000", "135018.515000", "135020.020000", "135021.527500", "135023.032500", "135024.540000", "135026.045000", "135027.552500", "135029.057500", "135030.562500", "135032.070000", "135033.575000", "135035.082500", "135036.587500", "135038.092500", "135039.600000", "135041.105000", "135042.612500", "135044.117500", "135045.622500", "135047.130000", "135048.635000", "135050.142500", "135051.647500", "135053.155000", "135054.660000", "135056.165000", "135057.672500", "135059.177500", "135100.685000", "135102.190000", "135103.695000", "135105.202500", "135106.707500", "135108.215000", "135109.720000", "135111.225000", "135112.732500", "135114.237500", "135115.745000", "135117.250000", "135118.755000", "135120.262500", "135121.767500", "135123.275000", "135124.780000", "135126.287500", "135127.792500", "135129.297500", "135130.805000", "135132.310000", "135133.817500", "135135.322500", "135136.827500", "135138.335000", "135139.840000", "135141.347500", "135142.852500", "135144.357500", "135145.865000", "135147.370000", "135148.877500", "135150.382500", "135151.887500", "135153.395000", "135154.900000", "135156.407500", "135157.912500", "135159.420000", "135200.925000", "135202.430000", "135203.937500", "135205.442500", "135206.950000", "135208.455000", "135209.960000", "135211.467500", "135212.972500", "135214.480000", "135215.985000", "135217.490000", "135218.997500", "135220.502500", "135222.010000", "135223.515000", "135225.020000", "135226.527500", "135228.032500", "135229.540000", "135231.045000", "135232.552500", "135234.057500", "135235.562500", "135237.070000", "135238.575000", "135240.082500", "135241.587500", "135243.092500", "135244.600000", "135246.105000", "135247.612500", "135249.117500", "135250.622500", "135252.130000", "135253.635000", "135255.142500", "135256.647500", "135258.155000", "135259.660000", "135301.165000", "135302.672500", "135304.177500", "135305.685000", "135307.190000", "135308.695000", "135310.202500", "135311.707500", "135313.215000", "135314.720000", "135316.225000", "135317.732500", "135319.237500", "135320.745000", "135322.250000", "135323.755000", "135325.262500", "135326.767500", "135328.275000", "135329.780000", "135331.287500", "135332.792500", "135334.297500", "135335.805000", "135337.310000", "135338.817500", "135340.322500", "135341.827500", "135343.335000", "135344.840000", "135346.347500", "135347.852500", "135349.357500", "135350.865000", "135352.370000", "135353.877500", "135355.382500", "135356.887500", "135358.395000", "135359.900000", "135401.407500", "135402.912500", "135404.420000", "135405.925000", "135407.430000", "135408.937500", "135410.442500", "135411.950000", "135413.455000", "135414.960000", "135416.467500", "135417.972500", "135419.480000", "135420.985000", "135422.490000", "135423.997500", "135425.502500", "135427.010000", "135428.515000", "135430.020000", "135431.527500", "135433.032500", "135434.540000", "135436.045000", "135437.552500", "135439.057500", "135440.562500", "135442.070000", "135443.575000", "135445.082500", "135446.587500", "135448.092500", "135449.600000", "135451.105000", "135452.612500", "135454.117500", "135455.622500", "135457.130000", "135458.635000", "135500.142500", "135501.647500", "135503.155000", "135504.660000", "135506.165000", "135507.672500", "135509.177500", "135510.685000", "135512.190000", "135513.695000", "135515.202500", "135516.707500", "135518.215000", "135519.720000", "135521.225000", "135522.732500", "135524.237500", "135525.745000", "135527.250000", "135528.755000", "135530.262500", "135531.767500", "135533.275000", "135534.780000", "135536.287500", "135537.792500", "135539.297500", "135540.805000", "135542.310000", "135543.817500", "135545.322500", "135546.827500", "135548.335000", "135549.840000", "135551.347500", "135552.852500", "135554.357500", "135555.865000", "135557.370000", "135558.877500", "135600.382500", "135601.887500", "135603.395000", "135604.900000", "135606.407500", "135607.912500", "135609.420000", "135610.925000", "135612.430000", "135613.937500", "135615.442500", "135616.950000", "135618.455000", "135619.960000", "135621.467500", "135622.972500", "135624.480000", "135625.985000", "135627.490000", "135628.997500", "135630.502500", "135632.010000", "135633.515000", "135635.020000", "135636.527500", "135638.032500", "135639.540000", "135641.045000", "135642.552500", "135644.057500", "135645.562500", "135647.070000", "135648.575000", "135650.082500", "135651.587500", "135653.092500", "135654.600000", "135656.105000", "135657.612500", "135659.117500", "135700.622500", "135702.130000", "135703.635000", "135705.142500", "135706.647500", "135708.155000", "135709.660000"],
      "ContentTime": ["134720.125000", "134721.125000", "134721.125000", "134722.125000", "134722.625000", "134723.625000", "134724.625000", "134725.625000", "134726.625000", "134727.625000", "134729.125000", "134730.125000", "134731.125000", "134732.625000", "134734.125000", "134735.625000", "134737.125000", "134738.625000", "134740.125000", "134741.625000", "134743.125000", "134744.625000", "134746.125000", "134747.625000", "134749.125000", "134750.625000", "134752.125000", "134753.625000", "134755.125000", "134756.625000", "134758.125000", "134759.625000", "134801.125000", "134802.625000", "134804.125000", "134805.625000", "134807.125000", "134808.625000", "134810.125000", "134811.625000", "134813.125000", "134814.625000", "134816.125000", "134817.625000", "134819.125000", "134820.625000", "134822.125000", "134823.625000", "134825.125000", "134826.625000", "134828.125000", "134829.625000", "134831.125000", "134832.625000", "134834.125000", "134835.625000", "134837.125000", "134838.625000", "134840.125000", "134841.625000", "134843.125000", "134844.625000", "134846.125000", "134847.625000", "134849.125000", "134850.625000", "134852.125000", "134853.625000", "134855.125000", "134856.625000", "134858.125000", "134859.625000", "134901.125000", "134902.625000", "134904.125000", "134905.625000", "134907.125000", "134908.625000", "134910.125000", "134911.625000", "134913.125000", "134914.625000", "134916.125000", "134917.625000", "134919.125000", "134920.625000", "134922.125000", "134923.625000", "134925.125000", "134926.625000", "134928.125000", "134929.625000", "134931.125000", "134932.625000", "134934.125000", "134935.625000", "134937.125000", "134938.625000", "134940.125000", "134941.625000", "134943.125000", "134944.625000", "134946.125000", "134947.625000", "134949.125000", "134950.625000", "134952.125000", "134953.625000", "134955.125000", "134956.625000", "134958.125000", "134959.625000", "135001.125000", "135002.625000", "135004.125000", "135005.625000", "135007.125000", "135008.625000", "135010.125000", "135011.625000", "135013.125000", "135014.625000", "135016.125000", "135017.625000", "135019.125000", "135020.625000", "135022.125000", "135023.625000", "135025.125000", "135026.625000", "135028.125000", "135029.625000", "135031.125000", "135032.625000", "135034.125000", "135035.625000", "135037.125000", "135038.625000", "135040.125000", "135041.625000", "135043.125000", "135044.625000", "135046.125000", "135047.625000", "135049.125000", "135050.625000", "135052.125000", "135053.625000", "135055.125000", "135056.625000", "135058.125000", "135059.625000", "135101.125000", "135102.625000", "135104.125000", "135105.625000", "135107.125000", "135108.625000", "135110.125000", "135111.625000", "135113.125000", "135114.625000", "135116.125000", "135117.625000", "135119.125000", "135120.625000", "135122.125000", "135123.625000", "135125.125000", "135126.625000", "135128.125000", "135129.625000", "135131.125000", "135132.625000", "135134.125000", "135135.625000", "135137.125000", "135138.625000", "135140.125000", "135141.625000", "135143.125000", "135144.625000", "135146.125000", "135147.625000", "135149.125000", "135150.625000", "135152.125000", "135153.625000", "135155.125000", "135156.625000", "135158.125000", "135159.625000", "135201.125000", "135202.625000", "135204.125000", "135205.625000", "135207.125000", "135208.625000", "135210.125000", "135211.625000", "135213.125000", "135214.625000", "135216.125000", "135217.625000", "135219.125000", "135220.625000", "135222.125000", "135223.625000", "135225.125000", "135226.625000", "135228.125000", "135229.625000", "135231.125000", "135232.625000", "135234.125000", "135235.625000", "135237.125000", "135238.625000", "135240.125000", "135241.625000", "135243.125000", "135244.625000", "135246.125000", "135247.625000", "135249.125000", "135250.625000", "135252.125000", "135253.625000", "135255.125000", "135256.625000", "135258.125000", "135259.625000", "135301.125000", "135302.625000", "135304.125000", "135305.625000", "135307.125000", "135308.625000", "135310.125000", "135311.625000", "135313.125000", "135314.625000", "135316.125000", "135317.625000", "135319.125000", "135320.625000", "135322.125000", "135323.625000", "135325.125000", "135326.625000", "135328.125000", "135329.625000", "135331.125000", "135332.625000", "135334.125000", "135335.625000", "135337.125000", "135338.625000", "135340.125000", "135341.625000", "135343.625000", "135344.625000", "135346.125000", "135347.625000", "135349.125000", "135350.625000", "135352.125000", "135353.625000", "135355.125000", "135356.625000", "135358.125000", "135359.625000", "135401.125000", "135402.625000", "135404.125000", "135405.625000", "135407.125000", "135408.625000", "135410.125000", "135411.625000", "135413.125000", "135414.625000", "135416.125000", "135417.625000", "135419.125000", "135420.625000", "135422.125000", "135423.625000", "135425.125000", "135426.625000", "135428.125000", "135429.625000", "135431.125000", "135432.625000", "135434.125000", "135435.625000", "135437.125000", "135438.625000", "135440.125000", "135441.625000", "135443.125000", "135444.625000", "135446.125000", "135447.625000", "135449.125000", "135450.625000", "135452.125000", "135453.625000", "135455.125000", "135456.625000", "135458.125000", "135459.625000", "135501.125000", "135502.625000", "135504.125000", "135505.625000", "135507.125000", "135508.625000", "135510.125000", "135511.625000", "135513.125000", "135514.625000", "135516.125000", "135517.625000", "135519.125000", "135520.625000", "135522.125000", "135523.625000", "135525.125000", "135526.625000", "135528.125000", "135529.625000", "135531.125000", "135532.625000", "135534.125000", "135535.625000", "135537.125000", "135538.625000", "135540.125000", "135541.625000", "135543.125000", "135544.625000", "135546.125000", "135547.625000", "135549.125000", "135550.625000", "135552.125000", "135553.625000", "135555.125000", "135556.625000", "135558.125000", "135559.625000", "135601.125000", "135602.625000", "135604.125000", "135605.625000", "135607.125000", "135608.625000", "135610.125000", "135611.625000", "135613.125000", "135614.625000", "135616.125000", "135617.625000", "135619.125000", "135620.625000", "135622.125000", "135623.625000", "135625.125000", "135626.625000", "135628.125000", "135629.625000", "135631.125000", "135632.625000", "135634.125000", "135635.625000", "135637.125000", "135638.625000", "135640.125000", "135641.625000", "135643.125000", "135644.625000", "135646.125000", "135647.625000", "135649.125000", "135650.625000", "135652.125000", "135653.625000", "135655.125000", "135656.625000", "135658.125000", "135659.625000", "135701.125000", "135702.625000", "135704.125000", "135705.625000", "135707.125000", "135708.625000", "135710.125000", "135716.546000"],
      "InstanceCreationTime": ["134720.125000", "134721.125000", "134721.125000", "134722.125000", "134722.625000", "134723.625000", "134724.625000", "134725.625000", "134726.625000", "134727.625000", "134729.125000", "134730.125000", "134731.125000", "134732.625000", "134734.125000", "134735.625000", "134737.125000", "134738.625000", "134740.125000", "134741.625000", "134743.125000", "134744.625000", "134746.125000", "134747.625000", "134749.125000", "134750.625000", "134752.125000", "134753.625000", "134755.125000", "134756.625000", "134758.125000", "134759.625000", "134801.125000", "134802.625000", "134804.125000", "134805.625000", "134807.125000", "134808.625000", "134810.125000", "134811.625000", "134813.125000", "134814.625000", "134816.125000", "134817.625000", "134819.125000", "134820.625000", "134822.125000", "134823.625000", "134825.125000", "134826.625000", "134828.125000", "134829.625000", "134831.125000", "134832.625000", "134834.125000", "134835.625000", "134837.125000", "134838.625000", "134840.125000", "134841.625000", "134843.125000", "134844.625000", "134846.125000", "134847.625000", "134849.125000", "134850.625000", "134852.125000", "134853.625000", "134855.125000", "134856.625000", "134858.125000", "134859.625000", "134901.125000", "134902.625000", "134904.125000", "134905.625000", "134907.125000", "134908.625000", "134910.125000", "134911.625000", "134913.125000", "134914.625000", "134916.125000", "134917.625000", "134919.125000", "134920.625000", "134922.125000", "134923.625000", "134925.125000", "134926.625000", "134928.125000", "134929.625000", "134931.125000", "134932.625000", "134934.125000", "134935.625000", "134937.125000", "134938.625000", "134940.125000", "134941.625000", "134943.125000", "134944.625000", "134946.125000", "134947.625000", "134949.125000", "134950.625000", "134952.125000", "134953.625000", "134955.125000", "134956.625000", "134958.125000", "134959.625000", "135001.125000", "135002.625000", "135004.125000", "135005.625000", "135007.125000", "135008.625000", "135010.125000", "135011.625000", "135013.125000", "135014.625000", "135016.125000", "135017.625000", "135019.125000", "135020.625000", "135022.125000", "135023.625000", "135025.125000", "135026.625000", "135028.125000", "135029.625000", "135031.125000", "135032.625000", "135034.125000", "135035.625000", "135037.125000", "135038.625000", "135040.125000", "135041.625000", "135043.125000", "135044.625000", "135046.125000", "135047.625000", "135049.125000", "135050.625000", "135052.125000", "135053.625000", "135055.125000", "135056.625000", "135058.125000", "135059.625000", "135101.125000", "135102.625000", "135104.125000", "135105.625000", "135107.125000", "135108.625000", "135110.125000", "135111.625000", "135113.125000", "135114.625000", "135116.125000", "135117.625000", "135119.125000", "135120.625000", "135122.125000", "135123.625000", "135125.125000", "135126.625000", "135128.125000", "135129.625000", "135131.125000", "135132.625000", "135134.125000", "135135.625000", "135137.125000", "135138.625000", "135140.125000", "135141.625000", "135143.125000", "135144.625000", "135146.125000", "135147.625000", "135149.125000", "135150.625000", "135152.125000", "135153.625000", "135155.125000", "135156.625000", "135158.125000", "135159.625000", "135201.125000", "135202.625000", "135204.125000", "135205.625000", "135207.125000", "135208.625000", "135210.125000", "135211.625000", "135213.125000", "135214.625000", "135216.125000", "135217.625000", "135219.125000", "135220.625000", "135222.125000", "135223.625000", "135225.125000", "135226.625000", "135228.125000", "135229.625000", "135231.125000", "135232.625000", "135234.125000", "135235.625000", "135237.125000", "135238.625000", "135240.125000", "135241.625000", "135243.125000", "135244.625000", "135246.125000", "135247.625000", "135249.125000", "135250.625000", "135252.125000", "135253.625000", "135255.125000", "135256.625000", "135258.125000", "135259.625000", "135301.125000", "135302.625000", "135304.125000", "135305.625000", "135307.125000", "135308.625000", "135310.125000", "135311.625000", "135313.125000", "135314.625000", "135316.125000", "135317.625000", "135319.125000", "135320.625000", "135322.125000", "135323.625000", "135325.125000", "135326.625000", "135328.125000", "135329.625000", "135331.125000", "135332.625000", "135334.125000", "135335.625000", "135337.125000", "135338.625000", "135340.125000", "135341.625000", "135343.625000", "135344.625000", "135346.125000", "135347.625000", "135349.125000", "135350.625000", "135352.125000", "135353.625000", "135355.125000", "135356.625000", "135358.125000", "135359.625000", "135401.125000", "135402.625000", "135404.125000", "135405.625000", "135407.125000", "135408.625000", "135410.125000", "135411.625000", "135413.125000", "135414.625000", "135416.125000", "135417.625000", "135419.125000", "135420.625000", "135422.125000", "135423.625000", "135425.125000", "135426.625000", "135428.125000", "135429.625000", "135431.125000", "135432.625000", "135434.125000", "135435.625000", "135437.125000", "135438.625000", "135440.125000", "135441.625000", "135443.125000", "135444.625000", "135446.125000", "135447.625000", "135449.125000", "135450.625000", "135452.125000", "135453.625000", "135455.125000", "135456.625000", "135458.125000", "135459.625000", "135501.125000", "135502.625000", "135504.125000", "135505.625000", "135507.125000", "135508.625000", "135510.125000", "135511.625000", "135513.125000", "135514.625000", "135516.125000", "135517.625000", "135519.125000", "135520.625000", "135522.125000", "135523.625000", "135525.125000", "135526.625000", "135528.125000", "135529.625000", "135531.125000", "135532.625000", "135534.125000", "135535.625000", "135537.125000", "135538.625000", "135540.125000", "135541.625000", "135543.125000", "135544.625000", "135546.125000", "135547.625000", "135549.125000", "135550.625000", "135552.125000", "135553.625000", "135555.125000", "135556.625000", "135558.125000", "135559.625000", "135601.125000", "135602.625000", "135604.125000", "135605.625000", "135607.125000", "135608.625000", "135610.125000", "135611.625000", "135613.125000", "135614.625000", "135616.125000", "135617.625000", "135619.125000", "135620.625000", "135622.125000", "135623.625000", "135625.125000", "135626.625000", "135628.125000", "135629.625000", "135631.125000", "135632.625000", "135634.125000", "135635.625000", "135637.125000", "135638.625000", "135640.125000", "135641.625000", "135643.125000", "135644.625000", "135646.125000", "135647.625000", "135649.125000", "135650.625000", "135652.125000", "135653.625000", "135655.125000", "135656.625000", "135658.125000", "135659.625000", "135701.125000", "135702.625000", "135704.125000", "135705.625000", "135707.125000", "135708.625000", "135710.125000", "135716.546000"],
      "InstanceNumber": [1, 2, 3, 4, 5, 6, 7, 8, 9, 10, 11, 12, 13, 14, 15, 16, 17, 18, 19, 20, 21, 22, 23, 24, 25, 26, 27, 28, 29, 30, 31, 32, 33, 34, 35, 36, 37, 38, 39, 40, 41, 42, 43, 44, 45, 46, 47, 48, 49, 50, 51, 52, 53, 54, 55, 56, 57, 58, 59, 60, 61, 62, 63, 64, 65, 66, 67, 68, 69, 70, 71, 72, 73, 74, 75, 76, 77, 78, 79, 80, 81, 82, 83, 84, 85, 86, 87, 88, 89, 90, 91, 92, 93, 94, 95, 96, 97, 98, 99, 100, 101, 102, 103, 104, 105, 106, 107, 108, 109, 110, 111, 112, 113, 114, 115, 116, 117, 118, 119, 120, 121, 122, 123, 124, 125, 126, 127, 128, 129, 130, 131, 132, 133, 134, 135, 136, 137, 138, 139, 140, 141, 142, 143, 144, 145, 146, 147, 148, 149, 150, 151, 152, 153, 154, 155, 156, 157, 158, 159, 160, 161, 162, 163, 164, 165, 166, 167, 168, 169, 170, 171, 172, 173, 174, 175, 176, 177, 178, 179, 180, 181, 182, 183, 184, 185, 186, 187, 188, 189, 190, 191, 192, 193, 194, 195, 196, 197, 198, 199, 200, 201, 202, 203, 204, 205, 206, 207, 208, 209, 210, 211, 212, 213, 214, 215, 216, 217, 218, 219, 220, 221, 222, 223, 224, 225, 226, 227, 228, 229, 230, 231, 232, 233, 234, 235, 236, 237, 238, 239, 240, 241, 242, 243, 244, 245, 246, 247, 248, 249, 250, 251, 252, 253, 254, 255, 256, 257, 258, 259, 260, 261, 262, 263, 264, 265, 266, 267, 268, 269, 270, 271, 272, 273, 274, 275, 276, 277, 278, 279, 280, 281, 282, 283, 284, 285, 286, 287, 288, 289, 290, 291, 292, 293, 294, 295, 296, 297, 298, 299, 300, 301, 302, 303, 304, 305, 306, 307, 308, 309, 310, 311, 312, 313, 314, 315, 316, 317, 318, 319, 320, 321, 322, 323, 324, 325, 326, 327, 328, 329, 330, 331, 332, 333, 334, 335, 336, 337, 338, 339, 340, 341, 342, 343, 344, 345, 346, 347, 348, 349, 350, 351, 352, 353, 354, 355, 356, 357, 358, 359, 360, 361, 362, 363, 364, 365, 366, 367, 368, 369, 370, 371, 372, 373, 374, 375, 376, 377, 378, 379, 380, 381, 382, 383, 384, 385, 386, 387, 388, 389, 390, 391, 392, 393, 394, 395, 396, 397, 398, 399, 400],
