{
  "AcquisitionMatrixPE": 188,
  "AcquisitionNumber": 1,
  "AcquisitionTime": "13:31:10.180000",
  "BandwidthPerPixelPhaseEncode": 19.46,
  "BaseResolution": 188,
  "ConversionSoftware": "dcm2niix",
  "ConversionSoftwareVersion": "v1.0.20180606 GCC4.8.5",
  "DelayTime": 1.2,
  "DerivedVendorReportedEchoSpacing": 0.000820013,
  "DeviceSerialNumber": "18930",
  "DwellTime": 1.9e-06,
  "EchoTime": 0.02,
  "EffectiveEchoSpacing": 0.000273338,
  "FlipAngle": 80,
  "ImageComments": "Unaliased_MB2_PE2",
  "ImageOrientationPatientDICOM": [0.999989, -0.00342541, -0.00325005, -0.00275336, 0.136169, -0.990682],
  "ImageType": [
    "ORIGINAL",
    "PRIMARY",
    "M",
    "MB",
    "ND",
    "MOSAIC"
],
  "InPlanePhaseEncodingDirectionDICOM": "COL",
  "InstitutionAddress": "Oxfordlaan_55_Maastricht_Limburg_NL_6229_EV",
  "InstitutionName": "Scannexus",
  "InstitutionalDepartmentName": "MRI_7T",
  "MRAcquisitionType": "2D",
  "MagneticFieldStrength": 6.98,
  "Manufacturer": "Siemens",
  "ManufacturersModelName": "Investigational_Device_7T",
  "Modality": "MR",
  "MultibandAccelerationFactor": 2,
  "ParallelReductionFactorInPlane": 3,
  "PartialFourier": 0.75,
  "PatientPosition": "HFS",
  "PercentPhaseFOV": 100,
  "PhaseEncodingDirection": "j",
  "PhaseEncodingSteps": 141,
  "PhaseResolution": 1,
  "PixelBandwidth": 1400,
  "ProcedureStepDescription": "FeDem_Faruk",
  "ProtocolName": "cmrr_mbep2d_bold_AP_run5",
  "PulseSequenceDetails": "%CustomerSeq%_cmrr_mbep2d_bold",
  "ReceiveCoilName": "32Ch_Head_7T",
  "ReconMatrixPE": 188,
  "RepetitionTime": 2.6,
  "SAR": 0.0849313,
  "ScanOptions": "PFP_FS",
  "ScanningSequence": "EP",
  "SequenceName": "epfid2d1_188",
  "SequenceVariant": "SK_SS",
  "SeriesDescription": "cmrr_mbep2d_bold_AP_run5",
  "SeriesNumber": 14,
  "ShimSetting": [117, -139, 415, 467, -71, -134, 50, 133],
  "SliceThickness": 1.1,
  "SliceTiming": [0, 0.7325, 0.06, 0.795, 0.1225, 0.855, 0.1825, 0.9175, 0.245, 0.9775, 0.305, 1.0375, 0.3675, 1.1, 0.4275, 1.16, 0.4875, 1.2225, 0.55, 1.2825, 0.61, 1.345, 0.6725, 0, 0.7325, 0.06, 0.795, 0.1225, 0.855, 0.1825, 0.9175, 0.245, 0.9775, 0.305, 1.0375, 0.3675, 1.1, 0.4275, 1.16, 0.4875, 1.2225, 0.55, 1.2825, 0.61, 1.345, 0.6725],
  "SoftwareVersions": "syngo_MR_B17",
  "SpacingBetweenSlices": 1.1,
  "StationName": "MRC18930",
  "TaskName": "auditory",
  "TotalReadoutTime": 0.0511141,
  "TxRefAmp": 255,
  "dcmmeta_affine": [
    [-1.095732569694519, -0.0030169780366122723, -0.004219649825245142, 104.67474365234375],
    [0.0037533759605139494, 0.1492059826850891, -1.089747428894043, 30.216896057128906],
    [-0.00356122013181448, 1.0855344533920288, 0.14977332949638367, -116.87645721435547],
    [0.0, 0.0, 0.0, 1.0]
],
  "dcmmeta_reorient_transform": [
    [0.0, -1.0, 0.0, 187.0],
    [1.0, 0.0, 0.0, 0.0],
    [0.0, 0.0, 1.0, 0.0],
    [0.0, 0.0, 0.0, 1.0]
],
  "dcmmeta_shape": [188, 188, 46, 216],
  "dcmmeta_slice_dim": 2,
  "dcmmeta_version": 0.6,
  "global": {
    "const": {
      "AcquisitionMatrix": [188, 0, 0, 188],
      "AngioFlag": "N",
      "BitsAllocated": 16,
      "BitsStored": 12,
      "Columns": 1316,
      "EchoNumbers": 1,
      "EchoTime": 20.0,
      "EchoTrainLength": 1,
      "FlipAngle": 80.0,
      "HighBit": 11,
      "ImageOrientationPatient": [0.9999888518202, -0.0034254108465, -0.0032500455156, -0.0027533585549, 0.13616856135843, -0.9906818570632],
      "ImagePositionPatient": [-720.40212933038, -140.15368517417, 700.36842158837],
      "ImageType": [
        "ORIGINAL",
        "PRIMARY",
        "M",
        "MB",
        "ND",
        "MOSAIC"
],
      "ImagedNucleus": "1H",
      "ImagingFrequency": 297.205453,
      "InPlanePhaseEncodingDirection": "COL",
      "LargestImagePixelValue": 4095,
      "MRAcquisitionType": "2D",
      "MagneticFieldStrength": 6.98,
      "Manufacturer": "SIEMENS",
      "ManufacturerModelName": "Investigational_Device_7T",
      "Modality": "MR",
      "NumberOfAverages": 1.0,
      "NumberOfPhaseEncodingSteps": 141,
      "PercentPhaseFieldOfView": 100.0,
      "PercentSampling": 100.0,
      "PerformedProcedureStepStartTime": "121908.843000",
      "PhotometricInterpretation": "MONOCHROME2",
      "PixelBandwidth": 1400.0,
      "PixelRepresentation": 0,
      "PixelSpacing": [1.0957447290421, 1.0957447290421],
      "ProtocolName": "cmrr_mbep2d_bold_AP_run5",
      "RepetitionTime": 2600.0,
      "Rows": 1316,
      "SAR": 0.08493125587933,
      "SamplesPerPixel": 1,
      "ScanOptions": [
        "PFP",
        "FS"
],
      "ScanningSequence": "EP",
      "SequenceName": "epfid2d1_188",
      "SequenceVariant": [
        "SK",
        "SS"
],
      "SeriesDescription": "cmrr_mbep2d_bold_AP_run5",
      "SeriesNumber": 14,
      "SeriesTime": "133209.453000",
      "SliceLocation": -46.250423606159,
      "SliceThickness": 1.1000000238419,
      "SmallestImagePixelValue": 0,
      "SoftwareVersions": "syngo MR B17",
      "SpacingBetweenSlices": 1.099999660146,
      "SpecificCharacterSet": "ISO_IR 100",
      "StudyID": "1",
      "StudyTime": "121908.796000",
      "TransmitCoilName": "32Ch_Head_7T",
      "VariableFlipAngleFlag": "N",
      "WindowCenterWidthExplanation": "Algo1",
      "dBdt": 0.0},
    "slices": {}
  },
  "time": {
    "samples": {
      "AcquisitionNumber": [1, 2, 3, 4, 5, 6, 7, 8, 9, 10, 11, 12, 13, 14, 15, 16, 17, 18, 19, 20, 21, 22, 23, 24, 25, 26, 27, 28, 29, 30, 31, 32, 33, 34, 35, 36, 37, 38, 39, 40, 41, 42, 43, 44, 45, 46, 47, 48, 49, 50, 51, 52, 53, 54, 55, 56, 57, 58, 59, 60, 61, 62, 63, 64, 65, 66, 67, 68, 69, 70, 71, 72, 73, 74, 75, 76, 77, 78, 79, 80, 81, 82, 83, 84, 85, 86, 87, 88, 89, 90, 91, 92, 93, 94, 95, 96, 97, 98, 99, 100, 101, 102, 103, 104, 105, 106, 107, 108, 109, 110, 111, 112, 113, 114, 115, 116, 117, 118, 119, 120, 121, 122, 123, 124, 125, 126, 127, 128, 129, 130, 131, 132, 133, 134, 135, 136, 137, 138, 139, 140, 141, 142, 143, 144, 145, 146, 147, 148, 149, 150, 151, 152, 153, 154, 155, 156, 157, 158, 159, 160, 161, 162, 163, 164, 165, 166, 167, 168, 169, 170, 171, 172, 173, 174, 175, 176, 177, 178, 179, 180, 181, 182, 183, 184, 185, 186, 187, 188, 189, 190, 191, 192, 193, 194, 195, 196, 197, 198, 199, 200, 201, 202, 203, 204, 205, 206, 207, 208, 209, 210, 211, 212, 213, 214, 215, 216],
      "AcquisitionTime": ["133110.180000", "133112.790000", "133115.400000", "133118.010000", "133120.622500", "133123.232500", "133125.842500", "133128.452500", "133131.062500", "133133.675000", "133136.285000", "133138.895000", "133141.505000", "133144.115000", "133146.725000", "133149.337500", "133151.947500", "133154.557500", "133157.167500", "133159.777500", "133202.387500", "133205.000000", "133207.610000", "133210.220000", "133212.830000", "133215.440000", "133218.052500", "133220.662500", "133223.272500", "133225.882500", "133228.492500", "133231.102500", "133233.715000", "133236.325000", "133238.935000", "133241.545000", "133244.155000", "133246.765000", "133249.377500", "133251.987500", "133254.597500", "133257.207500", "133259.817500", "133302.430000", "133305.040000", "133307.650000", "133310.260000", "133312.870000", "133315.480000", "133318.092500", "133320.702500", "133323.312500", "133325.922500", "133328.532500", "133331.142500", "133333.755000", "133336.365000", "133338.975000", "133341.585000", "133344.195000", "133346.807500", "133349.417500", "133352.027500", "133354.637500", "133357.247500", "133359.857500", "133402.470000", "133405.080000", "133407.690000", "133410.300000", "133412.910000", "133415.520000", "133418.132500", "133420.742500", "133423.352500", "133425.962500", "133428.572500", "133431.185000", "133433.795000", "133436.405000", "133439.015000", "133441.625000", "133444.235000", "133446.847500", "133449.457500", "133452.067500", "133454.677500", "133457.287500", "133459.900000", "133502.510000", "133505.120000", "133507.730000", "133510.340000", "133512.950000", "133515.562500", "133518.172500", "133520.782500", "133523.392500", "133526.002500", "133528.612500", "133531.225000", "133533.835000", "133536.445000", "133539.055000", "133541.665000", "133544.277500", "133546.887500", "133549.497500", "133552.107500", "133554.717500", "133557.327500", "133559.940000", "133602.550000", "133605.160000", "133607.770000", "133610.380000", "133612.990000", "133615.602500", "133618.212500", "133620.822500", "133623.432500", "133626.042500", "133628.655000", "133631.265000", "133633.875000", "133636.485000", "133639.095000", "133641.705000", "133644.317500", "133646.927500", "133649.537500", "133652.147500", "133654.757500", "133657.367500", "133659.980000", "133702.590000", "133705.200000", "133707.810000", "133710.420000", "133713.032500", "133715.642500", "133718.252500", "133720.862500", "133723.472500", "133726.082500", "133728.695000", "133731.305000", "133733.915000", "133736.525000", "133739.135000", "133741.745000", "133744.357500", "133746.967500", "133749.577500", "133752.187500", "133754.797500", "133757.410000", "133800.020000", "133802.630000", "133805.240000", "133807.850000", "133810.460000", "133813.072500", "133815.682500", "133818.292500", "133820.902500", "133823.512500", "133826.122500", "133828.735000", "133831.345000", "133833.955000", "133836.565000", "133839.175000", "133841.787500", "133844.397500", "133847.007500", "133849.617500", "133852.227500", "133854.837500", "133857.450000", "133900.060000", "133902.670000", "133905.280000", "133907.890000", "133910.500000", "133913.112500", "133915.722500", "133918.332500", "133920.942500", "133923.552500", "133926.165000", "133928.775000", "133931.385000", "133933.995000", "133936.605000", "133939.215000", "133941.827500", "133944.437500", "133947.047500", "133949.657500", "133952.267500", "133954.877500", "133957.490000", "134000.100000", "134002.710000", "134005.320000", "134007.930000", "134010.542500", "134013.152500", "134015.762500", "134018.372500", "134020.982500", "134023.592500", "134026.205000", "134028.815000", "134031.425000"],
      "ContentTime": ["133209.453000", "133209.453000", "133209.453000", "133209.453000", "133209.468000", "133209.468000", "133209.484000", "133209.484000", "133209.484000", "133209.484000", "133209.484000", "133209.500000", "133209.500000", "133209.500000", "133209.500000", "133209.500000", "133209.500000", "133209.515000", "133209.515000", "133209.515000", "133209.515000", "133209.515000", "133309.453000", "133309.453000", "133309.453000", "133309.453000", "133309.453000", "133309.453000", "133309.453000", "133309.453000", "133309.468000", "133309.468000", "133309.468000", "133309.468000", "133309.484000", "133309.484000", "133309.484000", "133309.484000", "133309.484000", "133309.484000", "133309.484000", "133309.500000", "133309.500000", "133309.500000", "133309.500000", "133409.453000", "133409.453000", "133409.453000", "133409.453000", "133409.453000", "133409.453000", "133409.453000", "133409.468000", "133409.468000", "133409.468000", "133409.468000", "133409.468000", "133409.468000", "133409.468000", "133409.468000", "133409.484000", "133409.484000", "133409.484000", "133409.484000", "133409.484000", "133409.484000", "133409.484000", "133409.484000", "133509.453000", "133509.453000", "133509.453000", "133509.453000", "133509.468000", "133509.468000", "133509.468000", "133509.484000", "133509.484000", "133509.484000", "133509.484000", "133509.484000", "133509.484000", "133509.484000", "133509.484000", "133509.500000", "133509.500000", "133509.500000", "133509.500000", "133509.500000", "133509.515000", "133509.515000", "133509.515000", "133529.437000", "133529.453000", "133529.453000", "133529.453000", "133529.453000", "133529.453000", "133529.453000", "133529.453000", "133629.453000", "133629.453000", "133629.453000", "133629.453000", "133629.453000", "133629.453000", "133629.453000", "133629.468000", "133629.468000", "133629.468000", "133629.468000", "133629.468000", "133629.468000", "133629.500000", "133629.500000", "133629.500000", "133629.500000", "133629.500000", "133629.515000", "133629.515000", "133629.515000", "133629.515000", "133629.515000", "133729.453000", "133729.453000", "133729.453000", "133729.453000", "133729.453000", "133729.453000", "133729.453000", "133729.468000", "133729.468000", "133729.468000", "133729.468000", "133729.468000", "133729.468000", "133729.468000", "133729.484000", "133729.484000", "133729.484000", "133729.500000", "133729.500000", "133729.500000", "133729.500000", "133729.500000", "133729.500000", "133829.453000", "133829.453000", "133829.453000", "133829.453000", "133829.453000", "133829.453000", "133829.453000", "133829.468000", "133829.468000", "133829.468000", "133829.468000", "133829.484000", "133829.484000", "133829.484000", "133829.484000", "133829.484000", "133829.484000", "133829.484000", "133829.484000", "133829.500000", "133829.500000", "133829.500000", "133829.500000", "133929.453000", "133929.453000", "133929.453000", "133929.453000", "133929.453000", "133929.453000", "133929.453000", "133929.468000", "133929.468000", "133929.468000", "133929.468000", "133929.468000", "133929.468000", "133929.468000", "133929.484000", "133929.484000", "133929.484000", "133929.484000", "133929.484000", "133929.484000", "133929.484000", "133929.500000", "133929.500000", "134029.453000", "134029.453000", "134029.453000", "134029.453000", "134029.453000", "134029.453000", "134029.453000", "134029.453000", "134029.468000", "134029.468000", "134029.468000", "134029.468000", "134029.484000", "134029.484000", "134029.484000", "134029.484000", "134029.484000", "134029.484000", "134029.484000", "134029.500000", "134029.500000", "134029.500000", "134029.500000", "134038.546000", "134038.578000"],
      "InstanceCreationTime": ["133209.453000", "133209.453000", "133209.453000", "133209.453000", "133209.468000", "133209.468000", "133209.484000", "133209.484000", "133209.484000", "133209.484000", "133209.484000", "133209.500000", "133209.500000", "133209.500000", "133209.500000", "133209.500000", "133209.500000", "133209.515000", "133209.515000", "133209.515000", "133209.515000", "133209.515000", "133309.453000", "133309.453000", "133309.453000", "133309.453000", "133309.453000", "133309.453000", "133309.453000", "133309.453000", "133309.468000", "133309.468000", "133309.468000", "133309.468000", "133309.484000", "133309.484000", "133309.484000", "133309.484000", "133309.484000", "133309.484000", "133309.484000", "133309.500000", "133309.500000", "133309.500000", "133309.500000", "133409.453000", "133409.453000", "133409.453000", "133409.453000", "133409.453000", "133409.453000", "133409.453000", "133409.468000", "133409.468000", "133409.468000", "133409.468000", "133409.468000", "133409.468000", "133409.468000", "133409.468000", "133409.484000", "133409.484000", "133409.484000", "133409.484000", "133409.484000", "133409.484000", "133409.484000", "133409.484000", "133509.453000", "133509.453000", "133509.453000", "133509.453000", "133509.468000", "133509.468000", "133509.468000", "133509.484000", "133509.484000", "133509.484000", "133509.484000", "133509.484000", "133509.484000", "133509.484000", "133509.484000", "133509.500000", "133509.500000", "133509.500000", "133509.500000", "133509.500000", "133509.515000", "133509.515000", "133509.515000", "133529.437000", "133529.453000", "133529.453000", "133529.453000", "133529.453000", "133529.453000", "133529.453000", "133529.453000", "133629.453000", "133629.453000", "133629.453000", "133629.453000", "133629.453000", "133629.453000", "133629.453000", "133629.468000", "133629.468000", "133629.468000", "133629.468000", "133629.468000", "133629.468000", "133629.500000", "133629.500000", "133629.500000", "133629.500000", "133629.500000", "133629.515000", "133629.515000", "133629.515000", "133629.515000", "133629.515000", "133729.453000", "133729.453000", "133729.453000", "133729.453000", "133729.453000", "133729.453000", "133729.453000", "133729.468000", "133729.468000", "133729.468000", "133729.468000", "133729.468000", "133729.468000", "133729.468000", "133729.484000", "133729.484000", "133729.484000", "133729.500000", "133729.500000", "133729.500000", "133729.500000", "133729.500000", "133729.500000", "133829.453000", "133829.453000", "133829.453000", "133829.453000", "133829.453000", "133829.453000", "133829.453000", "133829.468000", "133829.468000", "133829.468000", "133829.468000", "133829.484000", "133829.484000", "133829.484000", "133829.484000", "133829.484000", "133829.484000", "133829.484000", "133829.484000", "133829.500000", "133829.500000", "133829.500000", "133829.500000", "133929.453000", "133929.453000", "133929.453000", "133929.453000", "133929.453000", "133929.453000", "133929.453000", "133929.468000", "133929.468000", "133929.468000", "133929.468000", "133929.468000", "133929.468000", "133929.468000", "133929.484000", "133929.484000", "133929.484000", "133929.484000", "133929.484000", "133929.484000", "133929.484000", "133929.500000", "133929.500000", "134029.453000", "134029.453000", "134029.453000", "134029.453000", "134029.453000", "134029.453000", "134029.453000", "134029.453000", "134029.468000", "134029.468000", "134029.468000", "134029.468000", "134029.484000", "134029.484000", "134029.484000", "134029.484000", "134029.484000", "134029.484000", "134029.484000", "134029.500000", "134029.500000", "134029.500000", "134029.500000", "134038.546000", "134038.578000"],
      "InstanceNumber": [1, 2, 3, 4, 5, 6, 7, 8, 9, 10, 11, 12, 13, 14, 15, 16, 17, 18, 19, 20, 21, 22, 23, 24, 25, 26, 27, 28, 29, 30, 31, 32, 33, 34, 35, 36, 37, 38, 39, 40, 41, 42, 43, 44, 45, 46, 47, 48, 49, 50, 51, 52, 53, 54, 55, 56, 57, 58, 59, 60, 61, 62, 63, 64, 65, 66, 67, 68, 69, 70, 71, 72, 73, 74, 75, 76, 77, 78, 79, 80, 81, 82, 83, 84, 85, 86, 87, 88, 89, 90, 91, 92, 93, 94, 95, 96, 97, 98, 99, 100, 101, 102, 103, 104, 105, 106, 107, 108, 109, 110, 111, 112, 113, 114, 115, 116, 117, 118, 119, 120, 121, 122, 123, 124, 125, 126, 127, 128, 129, 130, 131, 132, 133, 134, 135, 136, 137, 138, 139, 140, 141, 142, 143, 144, 145, 146, 147, 148, 149, 150, 151, 152, 153, 154, 155, 156, 157, 158, 159, 160, 161, 162, 163, 164, 165, 166, 167, 168, 169, 170, 171, 172, 173, 174, 175, 176, 177, 178, 179, 180, 181, 182, 183, 184, 185, 186, 187, 188, 189, 190, 191, 192, 193, 194, 195, 196, 197, 198, 199, 200, 201, 202, 203, 204, 205, 206, 207, 208, 209, 210, 211, 212, 213, 214, 215, 216],
      "WindowCenter": [945.0, 942.0, 942.0, 940.0, 939.0, 940.0, 942.0, 941.0, 940.0, 940.0, 942.0, 941.0, 940.0, 940.0, 941.0, 941.0, 941.0, 940.0, 940.0, 940.0, 940.0, 941.0, 940.0, 940.0, 941.0, 941.0, 941.0, 941.0, 941.0, 941.0, 941.0, 941.0, 942.0, 942.0, 940.0, 940.0, 941.0, 941.0, 941.0, 940.0, 942.0, 941.0, 940.0, 941.0, 943.0, 942.0, 940.0, 941.0, 942.0, 941.0, 940.0, 940.0, 942.0, 941.0, 941.0, 943.0, 943.0, 942.0, 943.0, 942.0, 941.0, 940.0, 942.0, 942.0, 942.0, 941.0, 941.0, 941.0, 941.0, 941.0, 941.0, 942.0, 942.0, 942.0, 943.0, 943.0, 942.0, 941.0, 940.0, 942.0, 942.0, 941.0, 942.0, 942.0, 940.0, 940.0, 941.0, 942.0, 942.0, 942.0, 941.0, 941.0, 942.0, 942.0, 941.0, 942.0, 942.0, 941.0, 940.0, 941.0, 942.0, 941.0, 941.0, 943.0, 943.0, 942.0, 942.0, 943.0, 942.0, 941.0, 941.0, 942.0, 943.0, 943.0, 942.0, 941.0, 943.0, 943.0, 940.0, 940.0, 941.0, 942.0, 941.0, 940.0, 941.0, 942.0, 941.0, 940.0, 940.0, 942.0, 943.0, 942.0, 941.0, 943.0, 943.0, 942.0, 941.0, 941.0, 941.0, 944.0, 942.0, 940.0, 941.0, 942.0, 942.0, 942.0, 943.0, 942.0, 941.0, 941.0, 941.0, 940.0, 941.0, 941.0, 940.0, 940.0, 941.0, 940.0, 940.0, 942.0, 941.0, 941.0, 942.0, 941.0, 941.0, 942.0, 941.0, 940.0, 941.0, 942.0, 941.0, 940.0, 941.0, 941.0, 942.0, 941.0, 940.0, 940.0, 941.0, 941.0, 940.0, 941.0, 941.0, 942.0, 942.0, 941.0, 941.0, 942.0, 942.0, 941.0, 940.0, 941.0, 941.0, 941.0, 940.0, 940.0, 941.0, 940.0, 940.0, 940.0, 941.0, 942.0, 941.0, 940.0, 940.0, 942.0, 942.0, 941.0, 941.0, 942.0, 942.0, 940.0, 940.0, 940.0, 941.0, 941.0],
      "WindowWidth": [2180.0, 2174.0, 2172.0, 2167.0, 2164.0, 2168.0, 2173.0, 2169.0, 2167.0, 2168.0, 2173.0, 2169.0, 2166.0, 2168.0, 2169.0, 2169.0, 2168.0, 2167.0, 2168.0, 2167.0, 2168.0, 2168.0, 2167.0, 2167.0, 2169.0, 2169.0, 2170.0, 2170.0, 2168.0, 2168.0, 2170.0, 2170.0, 2172.0, 2171.0, 2167.0, 2167.0, 2169.0, 2169.0, 2167.0, 2168.0, 2171.0, 2168.0, 2167.0, 2170.0, 2174.0, 2171.0, 2167.0, 2168.0, 2170.0, 2169.0, 2165.0, 2167.0, 2170.0, 2170.0, 2170.0, 2174.0, 2174.0, 2173.0, 2176.0, 2173.0, 2168.0, 2167.0, 2173.0, 2173.0, 2171.0, 2169.0, 2167.0, 2167.0, 2167.0, 2168.0, 2170.0, 2172.0, 2171.0, 2172.0, 2175.0, 2175.0, 2172.0, 2169.0, 2168.0, 2172.0, 2170.0, 2169.0, 2172.0, 2170.0, 2166.0, 2164.0, 2168.0, 2170.0, 2171.0, 2171.0, 2169.0, 2170.0, 2171.0, 2170.0, 2169.0, 2172.0, 2170.0, 2167.0, 2166.0, 2168.0, 2171.0, 2168.0, 2170.0, 2175.0, 2174.0, 2171.0, 2170.0, 2174.0, 2172.0, 2169.0, 2169.0, 2173.0, 2174.0, 2175.0, 2171.0, 2169.0, 2175.0, 2172.0, 2165.0, 2165.0, 2168.0, 2171.0, 2167.0, 2164.0, 2166.0, 2171.0, 2168.0, 2165.0, 2166.0, 2172.0, 2175.0, 2171.0, 2169.0, 2174.0, 2174.0, 2171.0, 2167.0, 2170.0, 2169.0, 2177.0, 2172.0, 2165.0, 2168.0, 2172.0, 2171.0, 2172.0, 2174.0, 2171.0, 2168.0, 2169.0, 2168.0, 2165.0, 2167.0, 2166.0, 2166.0, 2165.0, 2166.0, 2163.0, 2166.0, 2171.0, 2167.0, 2167.0, 2170.0, 2167.0, 2167.0, 2171.0, 2167.0, 2166.0, 2167.0, 2170.0, 2168.0, 2166.0, 2168.0, 2169.0, 2170.0, 2169.0, 2164.0, 2164.0, 2169.0, 2167.0, 2166.0, 2167.0, 2168.0, 2170.0, 2170.0, 2168.0, 2167.0, 2170.0, 2171.0, 2166.0, 2165.0, 2167.0, 2169.0, 2166.0, 2163.0, 2165.0, 2166.0, 2165.0, 2165.0, 2166.0, 2169.0, 2170.0, 2167.0, 2164.0, 2166.0, 2172.0, 2170.0, 2167.0, 2167.0, 2170.0, 2168.0, 2164.0, 2163.0, 2164.0, 2166.0, 2165.0]
    },
    "slices": {}
  }
}