{
  "AcquisitionMatrixPE": 188,
  "AcquisitionNumber": 1,
  "AcquisitionTime": "09:00:49.107500",
  "BandwidthPerPixelPhaseEncode": 19.46,
  "BaseResolution": 188,
  "ConversionSoftware": "dcm2niix",
  "ConversionSoftwareVersion": "v1.0.20180606 GCC4.8.5",
  "DelayTime": 1.2,
  "DerivedVendorReportedEchoSpacing": 0.000820013,
  "DeviceSerialNumber": "18930",
  "DwellTime": 1.9e-06,
  "EchoTime": 0.02,
  "EffectiveEchoSpacing": 0.000273338,
  "FlipAngle": 75,
  "ImageComments": "Unaliased_MB2_PE2",
  "ImageOrientationPatientDICOM": [0.997079, 0.0533282, -0.0546808, -0.0647723, 0.210966, -0.975345],
  "ImageType": [
    "ORIGINAL",
    "PRIMARY",
    "M",
    "MB",
    "ND",
    "MOSAIC"
],
  "InPlanePhaseEncodingDirectionDICOM": "COL",
  "InstitutionAddress": "Oxfordlaan_55_Maastricht_12C0A2_Limburg_NL_6229_EV",
  "InstitutionName": "Scannexus",
  "InstitutionalDepartmentName": "MRI_7T",
  "MRAcquisitionType": "2D",
  "MagneticFieldStrength": 6.98,
  "Manufacturer": "Siemens",
  "ManufacturersModelName": "Investigational_Device_7T",
  "Modality": "MR",
  "MultibandAccelerationFactor": 2,
  "ParallelReductionFactorInPlane": 3,
  "PartialFourier": 0.75,
  "PatientPosition": "HFS",
  "PercentPhaseFOV": 100,
  "PhaseEncodingDirection": "j",
  "PhaseEncodingSteps": 141,
  "PhaseResolution": 1,
  "PixelBandwidth": 1400,
  "ProcedureStepDescription": "FeDem_Faruk",
  "ProtocolName": "cmrr_mbep2d_bold_AP",
  "PulseSequenceDetails": "%CustomerSeq%_cmrr_mbep2d_bold",
  "ReceiveCoilName": "32Ch_Head_7T",
  "ReconMatrixPE": 188,
  "RepetitionTime": 2.6,
  "SAR": 0.0378488,
  "ScanOptions": "PFP_FS",
  "ScanningSequence": "EP",
  "SequenceName": "epfid2d1_188",
  "SequenceVariant": "SK_SS",
  "SeriesDescription": "cmrr_mbep2d_bold_AP",
  "SeriesNumber": 11,
  "ShimSetting": [56, -76, 427, 415, -84, 461, -48, 47],
  "SliceThickness": 1.1,
  "SliceTiming": [0, 0.735, 0.0625, 0.795, 0.1225, 0.855, 0.185, 0.9175, 0.245, 0.9775, 0.305, 1.04, 0.3675, 1.1, 0.4275, 1.1625, 0.49, 1.2225, 0.55, 1.285, 0.6125, 1.345, 0.6725, 0, 0.735, 0.0625, 0.795, 0.1225, 0.855, 0.185, 0.9175, 0.245, 0.9775, 0.305, 1.04, 0.3675, 1.1, 0.4275, 1.1625, 0.49, 1.2225, 0.55, 1.285, 0.6125, 1.345, 0.6725],
  "SoftwareVersions": "syngo_MR_B17",
  "SpacingBetweenSlices": 1.1,
  "StationName": "MRC18930",
  "TotalReadoutTime": 0.0511141,
  "TxRefAmp": 170,
  "dcmmeta_affine": [
    [-1.0925438404083252, -0.07097391039133072, 0.04452543705701828, 105.0876693725586],
    [-0.0584341399371624, 0.2311643660068512, -1.0736415386199951, 29.283571243286133],
    [-0.05991622060537338, 1.068729281425476, 0.23518379032611847, -111.51782989501953],
    [0.0, 0.0, 0.0, 1.0]
],
  "dcmmeta_reorient_transform": [
    [0.0, -1.0, 0.0, 187.0],
    [1.0, 0.0, 0.0, 0.0],
    [0.0, 0.0, 1.0, 0.0],
    [0.0, 0.0, 0.0, 1.0]
],
  "dcmmeta_shape": [188, 188, 46, 150],
  "dcmmeta_slice_dim": 2,
  "dcmmeta_version": 0.6,
  "global": {
    "const": {
      "AcquisitionMatrix": [188, 0, 0, 188],
      "AngioFlag": "N",
      "BitsAllocated": 16,
      "BitsStored": 12,
      "Columns": 1316,
      "EchoNumbers": 1,
      "EchoTime": 20.0,
      "EchoTrainLength": 1,
      "FlipAngle": 75.0,
      "HighBit": 11,
      "ImageOrientationPatient": [0.9970787865409, 0.05332824067929, -0.0546808209171, -0.0647723057413, 0.21096552709947, -0.9753451157332],
      "ImagePositionPatient": [-667.98097657726, -235.84486219037, 724.89059814474],
      "ImageType": [
        "ORIGINAL",
        "PRIMARY",
        "M",
        "MB",
        "ND",
        "MOSAIC"
],
      "ImagedNucleus": "1H",
      "ImagingFrequency": 297.205695,
      "InPlanePhaseEncodingDirection": "COL",
      "LargestImagePixelValue": 4095,
      "MRAcquisitionType": "2D",
      "MagneticFieldStrength": 6.98,
      "Manufacturer": "SIEMENS",
      "ManufacturerModelName": "Investigational_Device_7T",
      "Modality": "MR",
      "NumberOfAverages": 1.0,
      "NumberOfPhaseEncodingSteps": 141,
      "PercentPhaseFieldOfView": 100.0,
      "PercentSampling": 100.0,
      "PerformedProcedureStepStartTime": "081242.234000",
      "PhotometricInterpretation": "MONOCHROME2",
      "PixelBandwidth": 1400.0,
      "PixelRepresentation": 0,
      "PixelSpacing": [1.0957447290421, 1.0957447290421],
      "ProtocolName": "cmrr_mbep2d_bold_AP",
      "RepetitionTime": 2600.0,
      "Rows": 1316,
      "SAR": 0.03784877491302,
      "SamplesPerPixel": 1,
      "ScanOptions": [
        "PFP",
        "FS"
],
      "ScanningSequence": "EP",
      "SequenceName": "epfid2d1_188",
      "SequenceVariant": [
        "SK",
        "SS"
],
      "SeriesDescription": "cmrr_mbep2d_bold_AP",
      "SeriesNumber": 11,
      "SeriesTime": "090057.796000",
      "SliceLocation": -48.171062132454,
      "SliceThickness": 1.1000000238419,
      "SmallestImagePixelValue": 0,
      "SoftwareVersions": "syngo MR B17",
      "SpacingBetweenSlices": 1.0999999909105,
      "SpecificCharacterSet": "ISO_IR 100",
      "StudyID": "1",
      "StudyTime": "081242.187000",
      "TransmitCoilName": "32Ch_Head_7T",
      "VariableFlipAngleFlag": "N",
      "WindowCenterWidthExplanation": "Algo1",
      "dBdt": 0.0},
    "slices": {}
  },
  "time": {
    "samples": {
      "AcquisitionNumber": [1, 2, 3, 4, 5, 6, 7, 8, 9, 10, 11, 12, 13, 14, 15, 16, 17, 18, 19, 20, 21, 22, 23, 24, 25, 26, 27, 28, 29, 30, 31, 32, 33, 34, 35, 36, 37, 38, 39, 40, 41, 42, 43, 44, 45, 46, 47, 48, 49, 50, 51, 52, 53, 54, 55, 56, 57, 58, 59, 60, 61, 62, 63, 64, 65, 66, 67, 68, 69, 70, 71, 72, 73, 74, 75, 76, 77, 78, 79, 80, 81, 82, 83, 84, 85, 86, 87, 88, 89, 90, 91, 92, 93, 94, 95, 96, 97, 98, 99, 100, 101, 102, 103, 104, 105, 106, 107, 108, 109, 110, 111, 112, 113, 114, 115, 116, 117, 118, 119, 120, 121, 122, 123, 124, 125, 126, 127, 128, 129, 130, 131, 132, 133, 134, 135, 136, 137, 138, 139, 140, 141, 142, 143, 144, 145, 146, 147, 148, 149, 150],
      "AcquisitionTime": ["090049.107500", "090051.717500", "090054.330000", "090056.940000", "090059.550000", "090102.160000", "090104.770000", "090107.380000", "090109.992500", "090112.602500", "090115.212500", "090117.822500", "090120.432500", "090123.045000", "090125.655000", "090128.265000", "090130.875000", "090133.485000", "090136.095000", "090138.707500", "090141.317500", "090143.927500", "090146.537500", "090149.147500", "090151.757500", "090154.370000", "090156.980000", "090159.590000", "090202.200000", "090204.810000", "090207.422500", "090210.032500", "090212.642500", "090215.252500", "090217.862500", "090220.472500", "090223.085000", "090225.695000", "090228.305000", "090230.915000", "090233.525000", "090236.135000", "090238.747500", "090241.357500", "090243.967500", "090246.577500", "090249.187500", "090251.800000", "090254.410000", "090257.020000", "090259.630000", "090302.240000", "090304.850000", "090307.462500", "090310.072500", "090312.682500", "090315.292500", "090317.902500", "090320.512500", "090323.125000", "090325.735000", "090328.345000", "090330.955000", "090333.565000", "090336.177500", "090338.787500", "090341.397500", "090344.007500", "090346.617500", "090349.227500", "090351.840000", "090354.450000", "090357.060000", "090359.670000", "090402.280000", "090404.890000", "090407.502500", "090410.112500", "090412.722500", "090415.332500", "090417.942500", "090420.555000", "090423.165000", "090425.775000", "090428.385000", "090430.995000", "090433.605000", "090436.217500", "090438.827500", "090441.437500", "090444.047500", "090446.657500", "090449.267500", "090451.880000", "090454.490000", "090457.100000", "090459.710000", "090502.320000", "090504.932500", "090507.542500", "090510.152500", "090512.762500", "090515.372500", "090517.982500", "090520.595000", "090523.205000", "090525.815000", "090528.425000", "090531.035000", "090533.645000", "090536.257500", "090538.867500", "090541.477500", "090544.087500", "090546.697500", "090549.310000", "090551.920000", "090554.530000", "090557.140000", "090559.750000", "090602.360000", "090604.972500", "090607.582500", "090610.192500", "090612.802500", "090615.412500", "090618.025000", "090620.635000", "090623.245000", "090625.855000", "090628.465000", "090631.075000", "090633.687500", "090636.297500", "090638.907500", "090641.517500", "090644.127500", "090646.737500", "090649.350000", "090651.960000", "090654.570000", "090657.180000", "090659.790000", "090702.402500", "090705.012500", "090707.622500", "090710.232500", "090712.842500", "090715.452500", "090718.065000"],
      "ContentTime": ["090057.796000", "090058.296000", "090058.296000", "090100.796000", "090103.296000", "090105.796000", "090108.796000", "090111.296000", "090113.796000", "090116.296000", "090118.796000", "090121.796000", "090124.296000", "090126.796000", "090129.296000", "090131.796000", "090134.796000", "090137.296000", "090139.796000", "090142.296000", "090144.796000", "090147.796000", "090150.296000", "090152.796000", "090155.296000", "090157.796000", "090200.796000", "090203.296000", "090205.796000", "090208.296000", "090210.796000", "090213.781000", "090216.296000", "090218.781000", "090221.296000", "090223.796000", "090226.796000", "090229.281000", "090231.796000", "090234.296000", "090236.796000", "090239.796000", "090242.296000", "090244.796000", "090247.296000", "090249.796000", "090252.796000", "090255.296000", "090257.796000", "090300.296000", "090302.796000", "090305.796000", "090308.296000", "090310.796000", "090313.296000", "090315.796000", "090318.796000", "090321.296000", "090323.796000", "090326.296000", "090328.796000", "090331.796000", "090334.296000", "090336.796000", "090339.296000", "090341.796000", "090344.796000", "090347.296000", "090349.796000", "090352.296000", "090354.796000", "090357.796000", "090400.296000", "090402.796000", "090405.296000", "090407.796000", "090410.796000", "090413.296000", "090415.796000", "090418.296000", "090420.796000", "090423.796000", "090426.296000", "090428.796000", "090431.296000", "090433.796000", "090436.796000", "090439.296000", "090441.796000", "090444.296000", "090446.796000", "090449.796000", "090452.296000", "090454.796000", "090457.296000", "090459.796000", "090502.796000", "090505.281000", "090507.796000", "090510.296000", "090512.796000", "090515.796000", "090518.296000", "090520.796000", "090523.296000", "090525.796000", "090528.796000", "090531.296000", "090533.796000", "090536.296000", "090538.796000", "090541.796000", "090544.296000", "090546.796000", "090549.296000", "090551.796000", "090554.796000", "090557.296000", "090559.796000", "090602.296000", "090604.796000", "090607.796000", "090610.296000", "090612.796000", "090615.296000", "090617.796000", "090620.796000", "090623.296000", "090625.796000", "090628.296000", "090630.796000", "090633.796000", "090636.296000", "090638.796000", "090641.296000", "090643.796000", "090646.796000", "090649.296000", "090651.796000", "090654.296000", "090656.796000", "090659.796000", "090702.296000", "090704.796000", "090707.296000", "090709.796000", "090712.796000", "090715.296000", "090717.796000", "090720.093000"],
      "InstanceCreationTime": ["090057.796000", "090058.296000", "090058.296000", "090100.796000", "090103.296000", "090105.796000", "090108.796000", "090111.296000", "090113.796000", "090116.296000", "090118.796000", "090121.796000", "090124.296000", "090126.796000", "090129.296000", "090131.796000", "090134.796000", "090137.296000", "090139.796000", "090142.296000", "090144.796000", "090147.796000", "090150.296000", "090152.796000", "090155.296000", "090157.796000", "090200.796000", "090203.296000", "090205.796000", "090208.296000", "090210.796000", "090213.781000", "090216.296000", "090218.781000", "090221.296000", "090223.796000", "090226.796000", "090229.281000", "090231.796000", "090234.296000", "090236.796000", "090239.796000", "090242.296000", "090244.796000", "090247.296000", "090249.796000", "090252.796000", "090255.296000", "090257.796000", "090300.296000", "090302.796000", "090305.796000", "090308.296000", "090310.796000", "090313.296000", "090315.796000", "090318.796000", "090321.296000", "090323.796000", "090326.296000", "090328.796000", "090331.796000", "090334.296000", "090336.796000", "090339.296000", "090341.796000", "090344.796000", "090347.296000", "090349.796000", "090352.296000", "090354.796000", "090357.796000", "090400.296000", "090402.796000", "090405.296000", "090407.796000", "090410.796000", "090413.296000", "090415.796000", "090418.296000", "090420.796000", "090423.796000", "090426.296000", "090428.796000", "090431.296000", "090433.796000", "090436.796000", "090439.296000", "090441.796000", "090444.296000", "090446.796000", "090449.796000", "090452.296000", "090454.796000", "090457.296000", "090459.796000", "090502.796000", "090505.281000", "090507.796000", "090510.296000", "090512.796000", "090515.796000", "090518.296000", "090520.796000", "090523.296000", "090525.796000", "090528.796000", "090531.296000", "090533.796000", "090536.296000", "090538.796000", "090541.796000", "090544.296000", "090546.796000", "090549.296000", "090551.796000", "090554.796000", "090557.296000", "090559.796000", "090602.296000", "090604.796000", "090607.796000", "090610.296000", "090612.796000", "090615.296000", "090617.796000", "090620.796000", "090623.296000", "090625.796000", "090628.296000", "090630.796000", "090633.796000", "090636.296000", "090638.796000", "090641.296000", "090643.796000", "090646.796000", "090649.296000", "090651.796000", "090654.296000", "090656.796000", "090659.796000", "090702.296000", "090704.796000", "090707.296000", "090709.796000", "090712.796000", "090715.296000", "090717.796000", "090720.093000"],
      "InstanceNumber": [1, 2, 3, 4, 5, 6, 7, 8, 9, 10, 11, 12, 13, 14, 15, 16, 17, 18, 19, 20, 21, 22, 23, 24, 25, 26, 27, 28, 29, 30, 31, 32, 33, 34, 35, 36, 37, 38, 39, 40, 41, 42, 43, 44, 45, 46, 47, 48, 49, 50, 51, 52, 53, 54, 55, 56, 57, 58, 59, 60, 61, 62, 63, 64, 65, 66, 67, 68, 69, 70, 71, 72, 73, 74, 75, 76, 77, 78, 79, 80, 81, 82, 83, 84, 85, 86, 87, 88, 89, 90, 91, 92, 93, 94, 95, 96, 97, 98, 99, 100, 101, 102, 103, 104, 105, 106, 107, 108, 109, 110, 111, 112, 113, 114, 115, 116, 117, 118, 119, 120, 121, 122, 123, 124, 125, 126, 127, 128, 129, 130, 131, 132, 133, 134, 135, 136, 137, 138, 139, 140, 141, 142, 143, 144, 145, 146, 147, 148, 149, 150],
      "WindowCenter": [805.0, 804.0, 803.0, 802.0, 802.0, 802.0, 802.0, 803.0, 801.0, 801.0, 801.0, 801.0, 801.0, 802.0, 802.0, 801.0, 799.0, 801.0, 801.0, 801.0, 802.0, 801.0, 801.0, 801.0, 802.0, 802.0, 802.0, 802.0, 802.0, 802.0, 801.0, 802.0, 802.0, 801.0, 801.0, 803.0, 803.0, 801.0, 802.0, 803.0, 801.0, 803.0, 803.0, 802.0, 801.0, 803.0, 802.0, 802.0, 803.0, 802.0, 802.0, 802.0, 804.0, 803.0, 802.0, 801.0, 801.0, 803.0, 803.0, 802.0, 803.0, 802.0, 802.0, 801.0, 802.0, 803.0, 802.0, 805.0, 806.0, 803.0, 803.0, 802.0, 802.0, 804.0, 805.0, 803.0, 802.0, 804.0, 803.0, 802.0, 802.0, 802.0, 801.0, 802.0, 803.0, 802.0, 803.0, 802.0, 802.0, 802.0, 802.0, 803.0, 803.0, 801.0, 803.0, 803.0, 802.0, 802.0, 804.0, 803.0, 802.0, 801.0, 803.0, 803.0, 803.0, 802.0, 802.0, 802.0, 802.0, 803.0, 802.0, 803.0, 803.0, 802.0, 803.0, 803.0, 804.0, 802.0, 802.0, 803.0, 802.0, 802.0, 802.0, 802.0, 804.0, 803.0, 803.0, 804.0, 803.0, 803.0, 804.0, 804.0, 803.0, 803.0, 804.0, 803.0, 802.0, 803.0, 803.0, 802.0, 803.0, 803.0, 802.0, 802.0, 801.0, 804.0, 801.0, 802.0, 802.0, 803.0],
      "WindowWidth": [1808.0, 1803.0, 1799.0, 1796.0, 1796.0, 1797.0, 1796.0, 1798.0, 1795.0, 1795.0, 1794.0, 1795.0, 1794.0, 1797.0, 1797.0, 1793.0, 1789.0, 1794.0, 1793.0, 1793.0, 1795.0, 1793.0, 1794.0, 1795.0, 1796.0, 1797.0, 1796.0, 1796.0, 1797.0, 1796.0, 1795.0, 1797.0, 1797.0, 1793.0, 1795.0, 1798.0, 1798.0, 1794.0, 1795.0, 1799.0, 1794.0, 1799.0, 1800.0, 1796.0, 1792.0, 1799.0, 1797.0, 1796.0, 1799.0, 1796.0, 1796.0, 1797.0, 1804.0, 1800.0, 1798.0, 1794.0, 1793.0, 1799.0, 1800.0, 1796.0, 1800.0, 1797.0, 1797.0, 1793.0, 1796.0, 1799.0, 1795.0, 1806.0, 1808.0, 1801.0, 1799.0, 1798.0, 1795.0, 1802.0, 1805.0, 1798.0, 1798.0, 1802.0, 1799.0, 1795.0, 1798.0, 1795.0, 1793.0, 1796.0, 1800.0, 1797.0, 1799.0, 1795.0, 1798.0, 1798.0, 1797.0, 1799.0, 1798.0, 1795.0, 1800.0, 1799.0, 1797.0, 1798.0, 1804.0, 1799.0, 1796.0, 1795.0, 1799.0, 1798.0, 1799.0, 1796.0, 1797.0, 1797.0, 1796.0, 1799.0, 1795.0, 1800.0, 1801.0, 1798.0, 1799.0, 1799.0, 1802.0, 1797.0, 1798.0, 1800.0, 1796.0, 1796.0, 1797.0, 1798.0, 1801.0, 1801.0, 1799.0, 1801.0, 1801.0, 1802.0, 1802.0, 1802.0, 1798.0, 1800.0, 1802.0, 1799.0, 1798.0, 1801.0, 1798.0, 1796.0, 1799.0, 1799.0, 1797.0, 1797.0, 1795.0, 1802.0, 1794.0, 1797.0, 1798.0, 1800.0]
    },
    "slices": {}
  }
}