{
  "AcquisitionMatrixPE": 188,
  "AcquisitionNumber": 1,
  "AcquisitionTime": "16:16:55.182500",
  "BandwidthPerPixelPhaseEncode": 19.46,
  "BaseResolution": 188,
  "ConversionSoftware": "dcm2niix",
  "ConversionSoftwareVersion": "v1.0.20180606 GCC4.8.5",
  "DerivedVendorReportedEchoSpacing": 0.000820013,
  "DeviceSerialNumber": "18930",
  "DwellTime": 1.9e-06,
  "EchoTime": 0.02,
  "EffectiveEchoSpacing": 0.000273338,
  "FlipAngle": 75,
  "ImageComments": "Unaliased_MB2_PE2",
  "ImageOrientationPatientDICOM": [0.996547, 0.0713799, -0.0424077, -0.0594599, 0.257071, -0.964562],
  "ImageType": [
    "ORIGINAL",
    "PRIMARY",
    "M",
    "MB",
    "ND",
    "MOSAIC"
],
  "InPlanePhaseEncodingDirectionDICOM": "COL",
  "InstitutionAddress": "Oxfordlaan_55_Maastricht_12C0A2_Limburg_NL_6229_EV",
  "InstitutionName": "Scannexus",
  "InstitutionalDepartmentName": "MRI_7T",
  "MRAcquisitionType": "2D",
  "MagneticFieldStrength": 6.98,
  "Manufacturer": "Siemens",
  "ManufacturersModelName": "Investigational_Device_7T",
  "Modality": "MR",
  "MultibandAccelerationFactor": 2,
  "ParallelReductionFactorInPlane": 3,
  "PartialFourier": 0.75,
  "PatientPosition": "HFS",
  "PercentPhaseFOV": 100,
  "PhaseEncodingDirection": "j",
  "PhaseEncodingSteps": 141,
  "PhaseResolution": 1,
  "PixelBandwidth": 1400,
  "ProcedureStepDescription": "FeDem_fMRI",
  "ProtocolName": "cmrr_mbep2d_bold_FH_rest",
  "PulseSequenceDetails": "%CustomerSeq%_cmrr_mbep2d_bold",
  "ReceiveCoilName": "32Ch_Head_7T",
  "ReconMatrixPE": 188,
  "RepetitionTime": 1.5,
  "SAR": 0.120924,
  "ScanOptions": "PFP_FS",
  "ScanningSequence": "EP",
  "SequenceName": "epfid2d1_188",
  "SequenceVariant": "SK_SS",
  "SeriesDescription": "cmrr_mbep2d_bold_FH_rest",
  "SeriesNumber": 24,
  "ShimSetting": [99, -122, 330, 334, 89, 263, -5, 103],
  "SliceThickness": 1.1,
  "SliceTiming": [0, 0.7825, 0.06, 0.8425, 0.12, 0.9025, 0.18, 0.9625, 0.24, 1.0225, 0.3, 1.0825, 0.36, 1.145, 0.42, 1.205, 0.4825, 1.265, 0.5425, 1.325, 0.6025, 1.385, 0.6625, 1.445, 0.7225, 0, 0.7825, 0.06, 0.8425, 0.12, 0.9025, 0.18, 0.9625, 0.24, 1.0225, 0.3, 1.0825, 0.36, 1.145, 0.42, 1.205, 0.4825, 1.265, 0.5425, 1.325, 0.6025, 1.385, 0.6625, 1.445, 0.7225],
  "SoftwareVersions": "syngo_MR_B17",
  "SpacingBetweenSlices": 1.1,
  "StationName": "MRC18930",
  "TaskName": "rest",
  "TotalReadoutTime": 0.0511141,
  "TxRefAmp": 205,
  "dcmmeta_affine": [
    [-1.09196138381958, -0.0651528462767601, 0.06374330818653107, 105.15416717529297],
    [-0.078214131295681, 0.2816842496395111, -1.06012761592865, 33.99186325073242],
    [-0.04646805673837662, 1.0569132566452026, 0.28647035360336304, -112.76734161376953],
    [0.0, 0.0, 0.0, 1.0]
],
  "dcmmeta_reorient_transform": [
    [0.0, -1.0, 0.0, 187.0],
    [1.0, 0.0, 0.0, 0.0],
    [0.0, 0.0, 1.0, 0.0],
    [0.0, 0.0, 0.0, 1.0]
],
  "dcmmeta_shape": [188, 188, 50, 400],
  "dcmmeta_slice_dim": 2,
  "dcmmeta_version": 0.6,
  "global": {
    "const": {
      "AcquisitionMatrix": [188, 0, 0, 188],
      "AngioFlag": "N",
      "BitsAllocated": 16,
      "BitsStored": 12,
      "Columns": 1504,
      "EchoNumbers": 1,
      "EchoTime": 20.0,
      "EchoTrainLength": 1,
      "FlipAngle": 75.0,
      "HighBit": 11,
      "ImageOrientationPatient": [0.9965472871801, 0.0713798851721, -0.0424077399397, -0.0594598764648, 0.25707106444182, -0.9645615537215],
      "ImagePositionPatient": [-768.61063717137, -323.4799667603, 810.90032724245],
      "ImageType": [
        "ORIGINAL",
        "PRIMARY",
        "M",
        "MB",
        "ND",
        "MOSAIC"
],
      "ImagedNucleus": "1H",
      "ImagingFrequency": 297.205859,
      "InPlanePhaseEncodingDirection": "COL",
      "MRAcquisitionType": "2D",
      "MagneticFieldStrength": 6.98,
      "Manufacturer": "SIEMENS",
      "ManufacturerModelName": "Investigational_Device_7T",
      "Modality": "MR",
      "NumberOfAverages": 1.0,
      "NumberOfPhaseEncodingSteps": 141,
      "PercentPhaseFieldOfView": 100.0,
      "PercentSampling": 100.0,
      "PerformedProcedureStepStartTime": "140749.156000",
      "PhotometricInterpretation": "MONOCHROME2",
      "PixelBandwidth": 1400.0,
      "PixelRepresentation": 0,
      "PixelSpacing": [1.0957447290421, 1.0957447290421],
      "ProtocolName": "cmrr_mbep2d_bold_FH_rest",
      "RepetitionTime": 1500.0,
      "Rows": 1504,
      "SAR": 0.12092395027373,
      "SamplesPerPixel": 1,
      "ScanOptions": [
        "PFP",
        "FS"
],
      "ScanningSequence": "EP",
      "SequenceName": "epfid2d1_188",
      "SequenceVariant": [
        "SK",
        "SS"
],
      "SeriesDescription": "cmrr_mbep2d_bold_FH_rest",
      "SeriesNumber": 24,
      "SeriesTime": "161705.546000",
      "SliceLocation": -56.033968334944,
      "SliceThickness": 1.1000000238419,
      "SmallestImagePixelValue": 0,
      "SoftwareVersions": "syngo MR B17",
      "SpacingBetweenSlices": 1.0999995039913,
      "SpecificCharacterSet": "ISO_IR 100",
      "StudyID": "1",
      "StudyTime": "140749.109000",
      "TransmitCoilName": "32Ch_Head_7T",
      "VariableFlipAngleFlag": "N",
      "WindowCenterWidthExplanation": "Algo1",
      "dBdt": 0.0},
    "slices": {}
  },
  "time": {
    "samples": {
      "AcquisitionNumber": [1, 2, 3, 4, 5, 6, 7, 8, 9, 10, 11, 12, 13, 14, 15, 16, 17, 18, 19, 20, 21, 22, 23, 24, 25, 26, 27, 28, 29, 30, 31, 32, 33, 34, 35, 36, 37, 38, 39, 40, 41, 42, 43, 44, 45, 46, 47, 48, 49, 50, 51, 52, 53, 54, 55, 56, 57, 58, 59, 60, 61, 62, 63, 64, 65, 66, 67, 68, 69, 70, 71, 72, 73, 74, 75, 76, 77, 78, 79, 80, 81, 82, 83, 84, 85, 86, 87, 88, 89, 90, 91, 92, 93, 94, 95, 96, 97, 98, 99, 100, 101, 102, 103, 104, 105, 106, 107, 108, 109, 110, 111, 112, 113, 114, 115, 116, 117, 118, 119, 120, 121, 122, 123, 124, 125, 126, 127, 128, 129, 130, 131, 132, 133, 134, 135, 136, 137, 138, 139, 140, 141, 142, 143, 144, 145, 146, 147, 148, 149, 150, 151, 152, 153, 154, 155, 156, 157, 158, 159, 160, 161, 162, 163, 164, 165, 166, 167, 168, 169, 170, 171, 172, 173, 174, 175, 176, 177, 178, 179, 180, 181, 182, 183, 184, 185, 186, 187, 188, 189, 190, 191, 192, 193, 194, 195, 196, 197, 198, 199, 200, 201, 202, 203, 204, 205, 206, 207, 208, 209, 210, 211, 212, 213, 214, 215, 216, 217, 218, 219, 220, 221, 222, 223, 224, 225, 226, 227, 228, 229, 230, 231, 232, 233, 234, 235, 236, 237, 238, 239, 240, 241, 242, 243, 244, 245, 246, 247, 248, 249, 250, 251, 252, 253, 254, 255, 256, 257, 258, 259, 260, 261, 262, 263, 264, 265, 266, 267, 268, 269, 270, 271, 272, 273, 274, 275, 276, 277, 278, 279, 280, 281, 282, 283, 284, 285, 286, 287, 288, 289, 290, 291, 292, 293, 294, 295, 296, 297, 298, 299, 300, 301, 302, 303, 304, 305, 306, 307, 308, 309, 310, 311, 312, 313, 314, 315, 316, 317, 318, 319, 320, 321, 322, 323, 324, 325, 326, 327, 328, 329, 330, 331, 332, 333, 334, 335, 336, 337, 338, 339, 340, 341, 342, 343, 344, 345, 346, 347, 348, 349, 350, 351, 352, 353, 354, 355, 356, 357, 358, 359, 360, 361, 362, 363, 364, 365, 366, 367, 368, 369, 370, 371, 372, 373, 374, 375, 376, 377, 378, 379, 380, 381, 382, 383, 384, 385, 386, 387, 388, 389, 390, 391, 392, 393, 394, 395, 396, 397, 398, 399, 400],
      "AcquisitionTime": ["161655.182500", "161656.687500", "161658.195000", "161659.700000", "161701.205000", "161702.712500", "161704.217500", "161705.725000", "161707.230000", "161708.737500", "161710.242500", "161711.747500", "161713.255000", "161714.760000", "161716.267500", "161717.772500", "161719.277500", "161720.785000", "161722.290000", "161723.797500", "161725.302500", "161726.807500", "161728.315000", "161729.820000", "161731.327500", "161732.832500", "161734.337500", "161735.845000", "161737.350000", "161738.857500", "161740.362500", "161741.870000", "161743.375000", "161744.880000", "161746.387500", "161747.892500", "161749.400000", "161750.905000", "161752.410000", "161753.917500", "161755.422500", "161756.930000", "161758.435000", "161759.940000", "161801.447500", "161802.952500", "161804.460000", "161805.965000", "161807.470000", "161808.977500", "161810.482500", "161811.990000", "161813.495000", "161815.002500", "161816.507500", "161818.012500", "161819.520000", "161821.025000", "161822.532500", "161824.037500", "161825.542500", "161827.050000", "161828.555000", "161830.062500", "161831.567500", "161833.072500", "161834.580000", "161836.085000", "161837.592500", "161839.097500", "161840.605000", "161842.110000", "161843.615000", "161845.122500", "161846.627500", "161848.135000", "161849.640000", "161851.145000", "161852.652500", "161854.157500", "161855.665000", "161857.170000", "161858.675000", "161900.182500", "161901.687500", "161903.195000", "161904.700000", "161906.205000", "161907.712500", "161909.217500", "161910.725000", "161912.230000", "161913.737500", "161915.242500", "161916.747500", "161918.255000", "161919.760000", "161921.267500", "161922.772500", "161924.277500", "161925.785000", "161927.290000", "161928.797500", "161930.302500", "161931.807500", "161933.315000", "161934.820000", "161936.327500", "161937.832500", "161939.337500", "161940.845000", "161942.350000", "161943.857500", "161945.362500", "161946.870000", "161948.375000", "161949.880000", "161951.387500", "161952.892500", "161954.400000", "161955.905000", "161957.410000", "161958.917500", "162000.422500", "162001.930000", "162003.435000", "162004.940000", "162006.447500", "162007.952500", "162009.460000", "162010.965000", "162012.470000", "162013.977500", "162015.482500", "162016.990000", "162018.495000", "162020.002500", "162021.507500", "162023.012500", "162024.520000", "162026.025000", "162027.532500", "162029.037500", "162030.542500", "162032.050000", "162033.555000", "162035.062500", "162036.567500", "162038.072500", "162039.580000", "162041.085000", "162042.592500", "162044.097500", "162045.605000", "162047.110000", "162048.615000", "162050.122500", "162051.627500", "162053.135000", "162054.640000", "162056.145000", "162057.652500", "162059.157500", "162100.665000", "162102.170000", "162103.675000", "162105.182500", "162106.687500", "162108.195000", "162109.700000", "162111.205000", "162112.712500", "162114.217500", "162115.725000", "162117.230000", "162118.737500", "162120.242500", "162121.747500", "162123.255000", "162124.760000", "162126.267500", "162127.772500", "162129.277500", "162130.785000", "162132.290000", "162133.797500", "162135.302500", "162136.807500", "162138.315000", "162139.820000", "162141.327500", "162142.832500", "162144.337500", "162145.845000", "162147.350000", "162148.857500", "162150.362500", "162151.870000", "162153.375000", "162154.880000", "162156.387500", "162157.892500", "162159.400000", "162200.905000", "162202.410000", "162203.917500", "162205.422500", "162206.930000", "162208.435000", "162209.940000", "162211.447500", "162212.952500", "162214.460000", "162215.965000", "162217.470000", "162218.977500", "162220.482500", "162221.990000", "162223.495000", "162225.002500", "162226.507500", "162228.012500", "162229.520000", "162231.025000", "162232.532500", "162234.037500", "162235.542500", "162237.050000", "162238.555000", "162240.062500", "162241.567500", "162243.072500", "162244.580000", "162246.085000", "162247.592500", "162249.097500", "162250.605000", "162252.110000", "162253.615000", "162255.122500", "162256.627500", "162258.135000", "162259.640000", "162301.145000", "162302.652500", "162304.157500", "162305.665000", "162307.170000", "162308.675000", "162310.182500", "162311.687500", "162313.195000", "162314.700000", "162316.205000", "162317.712500", "162319.217500", "162320.725000", "162322.230000", "162323.737500", "162325.242500", "162326.747500", "162328.255000", "162329.760000", "162331.267500", "162332.772500", "162334.277500", "162335.785000", "162337.290000", "162338.797500", "162340.302500", "162341.807500", "162343.315000", "162344.820000", "162346.327500", "162347.832500", "162349.337500", "162350.845000", "162352.350000", "162353.857500", "162355.362500", "162356.870000", "162358.375000", "162359.880000", "162401.387500", "162402.892500", "162404.400000", "162405.905000", "162407.410000", "162408.917500", "162410.422500", "162411.930000", "162413.435000", "162414.940000", "162416.447500", "162417.952500", "162419.460000", "162420.965000", "162422.470000", "162423.977500", "162425.482500", "162426.990000", "162428.495000", "162430.002500", "162431.507500", "162433.012500", "162434.520000", "162436.025000", "162437.532500", "162439.037500", "162440.542500", "162442.050000", "162443.555000", "162445.062500", "162446.567500", "162448.072500", "162449.580000", "162451.085000", "162452.592500", "162454.097500", "162455.605000", "162457.110000", "162458.615000", "162500.122500", "162501.627500", "162503.135000", "162504.640000", "162506.145000", "162507.652500", "162509.157500", "162510.665000", "162512.170000", "162513.675000", "162515.182500", "162516.687500", "162518.195000", "162519.700000", "162521.205000", "162522.712500", "162524.217500", "162525.725000", "162527.230000", "162528.737500", "162530.242500", "162531.747500", "162533.255000", "162534.760000", "162536.267500", "162537.772500", "162539.277500", "162540.785000", "162542.290000", "162543.797500", "162545.302500", "162546.807500", "162548.315000", "162549.820000", "162551.327500", "162552.832500", "162554.337500", "162555.845000", "162557.350000", "162558.857500", "162600.362500", "162601.870000", "162603.375000", "162604.880000", "162606.387500", "162607.892500", "162609.400000", "162610.905000", "162612.410000", "162613.917500", "162615.422500", "162616.930000", "162618.435000", "162619.940000", "162621.447500", "162622.952500", "162624.460000", "162625.965000", "162627.470000", "162628.977500", "162630.482500", "162631.990000", "162633.495000", "162635.002500", "162636.507500", "162638.012500", "162639.520000", "162641.025000", "162642.532500", "162644.037500", "162645.542500", "162647.050000", "162648.555000", "162650.062500", "162651.567500", "162653.072500", "162654.580000", "162656.085000"],
      "ContentTime": ["161705.546000", "161706.046000", "161707.046000", "161707.546000", "161708.046000", "161709.046000", "161710.046000", "161711.546000", "161712.546000", "161713.546000", "161714.546000", "161715.546000", "161717.046000", "161718.546000", "161720.046000", "161721.546000", "161723.046000", "161724.546000", "161726.046000", "161727.546000", "161729.046000", "161730.546000", "161732.046000", "161733.546000", "161735.046000", "161736.546000", "161738.046000", "161739.546000", "161741.046000", "161742.546000", "161744.046000", "161745.546000", "161747.031000", "161748.546000", "161750.046000", "161751.546000", "161753.046000", "161754.546000", "161756.046000", "161757.546000", "161759.046000", "161800.546000", "161802.046000", "161803.546000", "161805.046000", "161806.546000", "161808.046000", "161809.546000", "161811.046000", "161812.546000", "161814.046000", "161815.546000", "161817.046000", "161818.546000", "161820.046000", "161821.546000", "161823.046000", "161824.546000", "161826.046000", "161827.546000", "161829.046000", "161830.546000", "161832.046000", "161833.546000", "161835.046000", "161836.546000", "161838.046000", "161839.546000", "161841.046000", "161842.546000", "161844.046000", "161845.546000", "161847.046000", "161848.546000", "161850.046000", "161851.546000", "161853.046000", "161854.546000", "161856.046000", "161857.546000", "161859.046000", "161900.546000", "161902.046000", "161903.546000", "161905.046000", "161906.546000", "161908.046000", "161909.546000", "161911.046000", "161912.546000", "161914.046000", "161915.546000", "161917.046000", "161918.546000", "161920.046000", "161921.546000", "161923.046000", "161924.546000", "161926.046000", "161927.546000", "161929.046000", "161930.546000", "161932.031000", "161933.546000", "161935.046000", "161936.546000", "161938.046000", "161939.546000", "161941.031000", "161942.546000", "161944.046000", "161945.546000", "161947.046000", "161948.531000", "161950.046000", "161951.546000", "161953.046000", "161954.546000", "161956.046000", "161957.546000", "161959.046000", "162000.546000", "162002.046000", "162003.546000", "162005.046000", "162006.546000", "162008.046000", "162009.531000", "162011.046000", "162012.546000", "162014.046000", "162015.546000", "162017.046000", "162018.546000", "162020.046000", "162021.546000", "162023.046000", "162024.546000", "162026.046000", "162027.546000", "162029.046000", "162030.546000", "162032.046000", "162033.546000", "162035.046000", "162036.546000", "162038.046000", "162039.546000", "162041.046000", "162042.546000", "162044.046000", "162045.546000", "162047.046000", "162048.546000", "162050.046000", "162051.546000", "162053.046000", "162054.546000", "162056.046000", "162057.546000", "162059.046000", "162100.546000", "162102.046000", "162103.546000", "162105.046000", "162106.546000", "162108.046000", "162109.546000", "162111.046000", "162112.546000", "162114.046000", "162115.546000", "162117.046000", "162118.546000", "162120.046000", "162121.546000", "162123.046000", "162124.546000", "162126.046000", "162127.546000", "162129.046000", "162130.546000", "162132.046000", "162133.546000", "162135.046000", "162136.546000", "162138.046000", "162139.546000", "162141.046000", "162142.546000", "162144.046000", "162145.546000", "162147.046000", "162148.546000", "162150.046000", "162151.546000", "162153.046000", "162154.546000", "162156.046000", "162157.546000", "162159.046000", "162200.546000", "162202.046000", "162203.546000", "162205.046000", "162206.546000", "162208.046000", "162209.546000", "162211.046000", "162212.546000", "162214.046000", "162215.546000", "162217.046000", "162218.546000", "162220.046000", "162221.546000", "162223.046000", "162224.546000", "162226.046000", "162227.546000", "162229.046000", "162230.546000", "162232.046000", "162233.546000", "162235.046000", "162236.546000", "162238.046000", "162239.546000", "162241.046000", "162242.546000", "162244.046000", "162245.546000", "162247.046000", "162248.546000", "162250.046000", "162251.546000", "162253.046000", "162254.546000", "162256.046000", "162257.546000", "162259.046000", "162300.546000", "162302.046000", "162303.546000", "162305.046000", "162306.546000", "162308.046000", "162309.546000", "162311.046000", "162312.546000", "162314.046000", "162315.546000", "162317.046000", "162318.546000", "162320.046000", "162321.546000", "162323.046000", "162324.546000", "162326.046000", "162327.546000", "162329.046000", "162330.546000", "162332.046000", "162333.546000", "162335.046000", "162336.546000", "162338.046000", "162339.546000", "162341.046000", "162342.546000", "162344.046000", "162345.546000", "162347.046000", "162348.546000", "162350.046000", "162351.546000", "162353.046000", "162354.546000", "162356.046000", "162357.546000", "162359.046000", "162400.546000", "162402.046000", "162403.546000", "162405.046000", "162406.546000", "162408.046000", "162409.546000", "162411.046000", "162412.546000", "162414.046000", "162415.546000", "162417.046000", "162418.546000", "162420.046000", "162421.546000", "162423.046000", "162424.546000", "162426.046000", "162427.546000", "162429.046000", "162430.546000", "162432.046000", "162433.546000", "162435.046000", "162436.546000", "162438.046000", "162439.546000", "162441.046000", "162442.546000", "162444.046000", "162445.546000", "162447.046000", "162448.546000", "162450.046000", "162451.546000", "162453.046000", "162454.546000", "162456.046000", "162457.546000", "162459.046000", "162500.546000", "162502.046000", "162503.546000", "162505.046000", "162506.546000", "162508.046000", "162509.546000", "162511.046000", "162512.546000", "162514.046000", "162515.546000", "162517.046000", "162518.546000", "162520.046000", "162521.546000", "162523.046000", "162524.546000", "162526.046000", "162527.546000", "162529.046000", "162530.546000", "162532.046000", "162533.546000", "162535.046000", "162536.546000", "162538.046000", "162539.546000", "162541.046000", "162542.546000", "162544.046000", "162545.546000", "162547.046000", "162548.546000", "162550.046000", "162551.546000", "162553.046000", "162554.546000", "162556.046000", "162557.546000", "162559.046000", "162600.546000", "162602.046000", "162603.546000", "162605.046000", "162606.546000", "162608.046000", "162609.546000", "162611.046000", "162612.546000", "162614.046000", "162615.546000", "162617.046000", "162618.546000", "162620.046000", "162621.546000", "162623.046000", "162624.546000", "162626.046000", "162627.546000", "162629.046000", "162630.546000", "162632.046000", "162633.546000", "162635.046000", "162636.546000", "162638.046000", "162639.546000", "162641.046000", "162642.546000", "162644.046000", "162645.546000", "162647.046000", "162648.546000", "162650.046000", "162651.546000", "162653.046000", "162654.546000", "162656.046000", "162657.406000"],
      "InstanceCreationTime": ["161705.546000", "161706.046000", "161707.046000", "161707.546000", "161708.046000", "161709.046000", "161710.046000", "161711.546000", "161712.546000", "161713.546000", "161714.546000", "161715.546000", "161717.046000", "161718.546000", "161720.046000", "161721.546000", "161723.046000", "161724.546000", "161726.046000", "161727.546000", "161729.046000", "161730.546000", "161732.046000", "161733.546000", "161735.046000", "161736.546000", "161738.046000", "161739.546000", "161741.046000", "161742.546000", "161744.046000", "161745.546000", "161747.031000", "161748.546000", "161750.046000", "161751.546000", "161753.046000", "161754.546000", "161756.046000", "161757.546000", "161759.046000", "161800.546000", "161802.046000", "161803.546000", "161805.046000", "161806.546000", "161808.046000", "161809.546000", "161811.046000", "161812.546000", "161814.046000", "161815.546000", "161817.046000", "161818.546000", "161820.046000", "161821.546000", "161823.046000", "161824.546000", "161826.046000", "161827.546000", "161829.046000", "161830.546000", "161832.046000", "161833.546000", "161835.046000", "161836.546000", "161838.046000", "161839.546000", "161841.046000", "161842.546000", "161844.046000", "161845.546000", "161847.046000", "161848.546000", "161850.046000", "161851.546000", "161853.046000", "161854.546000", "161856.046000", "161857.546000", "161859.046000", "161900.546000", "161902.046000", "161903.546000", "161905.046000", "161906.546000", "161908.046000", "161909.546000", "161911.046000", "161912.546000", "161914.046000", "161915.546000", "161917.046000", "161918.546000", "161920.046000", "161921.546000", "161923.046000", "161924.546000", "161926.046000", "161927.546000", "161929.046000", "161930.546000", "161932.031000", "161933.546000", "161935.046000", "161936.546000", "161938.046000", "161939.546000", "161941.031000", "161942.546000", "161944.046000", "161945.546000", "161947.046000", "161948.531000", "161950.046000", "161951.546000", "161953.046000", "161954.546000", "161956.046000", "161957.546000", "161959.046000", "162000.546000", "162002.046000", "162003.546000", "162005.046000", "162006.546000", "162008.046000", "162009.531000", "162011.046000", "162012.546000", "162014.046000", "162015.546000", "162017.046000", "162018.546000", "162020.046000", "162021.546000", "162023.046000", "162024.546000", "162026.046000", "162027.546000", "162029.046000", "162030.546000", "162032.046000", "162033.546000", "162035.046000", "162036.546000", "162038.046000", "162039.546000", "162041.046000", "162042.546000", "162044.046000", "162045.546000", "162047.046000", "162048.546000", "162050.046000", "162051.546000", "162053.046000", "162054.546000", "162056.046000", "162057.546000", "162059.046000", "162100.546000", "162102.046000", "162103.546000", "162105.046000", "162106.546000", "162108.046000", "162109.546000", "162111.046000", "162112.546000", "162114.046000", "162115.546000", "162117.046000", "162118.546000", "162120.046000", "162121.546000", "162123.046000", "162124.546000", "162126.046000", "162127.546000", "162129.046000", "162130.546000", "162132.046000", "162133.546000", "162135.046000", "162136.546000", "162138.046000", "162139.546000", "162141.046000", "162142.546000", "162144.046000", "162145.546000", "162147.046000", "162148.546000", "162150.046000", "162151.546000", "162153.046000", "162154.546000", "162156.046000", "162157.546000", "162159.046000", "162200.546000", "162202.046000", "162203.546000", "162205.046000", "162206.546000", "162208.046000", "162209.546000", "162211.046000", "162212.546000", "162214.046000", "162215.546000", "162217.046000", "162218.546000", "162220.046000", "162221.546000", "162223.046000", "162224.546000", "162226.046000", "162227.546000", "162229.046000", "162230.546000", "162232.046000", "162233.546000", "162235.046000", "162236.546000", "162238.046000", "162239.546000", "162241.046000", "162242.546000", "162244.046000", "162245.546000", "162247.046000", "162248.546000", "162250.046000", "162251.546000", "162253.046000", "162254.546000", "162256.046000", "162257.546000", "162259.046000", "162300.546000", "162302.046000", "162303.546000", "162305.046000", "162306.546000", "162308.046000", "162309.546000", "162311.046000", "162312.546000", "162314.046000", "162315.546000", "162317.046000", "162318.546000", "162320.046000", "162321.546000", "162323.046000", "162324.546000", "162326.046000", "162327.546000", "162329.046000", "162330.546000", "162332.046000", "162333.546000", "162335.046000", "162336.546000", "162338.046000", "162339.546000", "162341.046000", "162342.546000", "162344.046000", "162345.546000", "162347.046000", "162348.546000", "162350.046000", "162351.546000", "162353.046000", "162354.546000", "162356.046000", "162357.546000", "162359.046000", "162400.546000", "162402.046000", "162403.546000", "162405.046000", "162406.546000", "162408.046000", "162409.546000", "162411.046000", "162412.546000", "162414.046000", "162415.546000", "162417.046000", "162418.546000", "162420.046000", "162421.546000", "162423.046000", "162424.546000", "162426.046000", "162427.546000", "162429.046000", "162430.546000", "162432.046000", "162433.546000", "162435.046000", "162436.546000", "162438.046000", "162439.546000", "162441.046000", "162442.546000", "162444.046000", "162445.546000", "162447.046000", "162448.546000", "162450.046000", "162451.546000", "162453.046000", "162454.546000", "162456.046000", "162457.546000", "162459.046000", "162500.546000", "162502.046000", "162503.546000", "162505.046000", "162506.546000", "162508.046000", "162509.546000", "162511.046000", "162512.546000", "162514.046000", "162515.546000", "162517.046000", "162518.546000", "162520.046000", "162521.546000", "162523.046000", "162524.546000", "162526.046000", "162527.546000", "162529.046000", "162530.546000", "162532.046000", "162533.546000", "162535.046000", "162536.546000", "162538.046000", "162539.546000", "162541.046000", "162542.546000", "162544.046000", "162545.546000", "162547.046000", "162548.546000", "162550.046000", "162551.546000", "162553.046000", "162554.546000", "162556.046000", "162557.546000", "162559.046000", "162600.546000", "162602.046000", "162603.546000", "162605.046000", "162606.546000", "162608.046000", "162609.546000", "162611.046000", "162612.546000", "162614.046000", "162615.546000", "162617.046000", "162618.546000", "162620.046000", "162621.546000", "162623.046000", "162624.546000", "162626.046000", "162627.546000", "162629.046000", "162630.546000", "162632.046000", "162633.546000", "162635.046000", "162636.546000", "162638.046000", "162639.546000", "162641.046000", "162642.546000", "162644.046000", "162645.546000", "162647.046000", "162648.546000", "162650.046000", "162651.546000", "162653.046000", "162654.546000", "162656.046000", "162657.406000"],
      "InstanceNumber": [1, 2, 3, 4, 5, 6, 7, 8, 9, 10, 11, 12, 13, 14, 15, 16, 17, 18, 19, 20, 21, 22, 23, 24, 25, 26, 27, 28, 29, 30, 31, 32, 33, 34, 35, 36, 37, 38, 39, 40, 41, 42, 43, 44, 45, 46, 47, 48, 49, 50, 51, 52, 53, 54, 55, 56, 57, 58, 59, 60, 61, 62, 63, 64, 65, 66, 67, 68, 69, 70, 71, 72, 73, 74, 75, 76, 77, 78, 79, 80, 81, 82, 83, 84, 85, 86, 87, 88, 89, 90, 91, 92, 93, 94, 95, 96, 97, 98, 99, 100, 101, 102, 103, 104, 105, 106, 107, 108, 109, 110, 111, 112, 113, 114, 115, 116, 117, 118, 119, 120, 121, 122, 123, 124, 125, 126, 127, 128, 129, 130, 131, 132, 133, 134, 135, 136, 137, 138, 139, 140, 141, 142, 143, 144, 145, 146, 147, 148, 149, 150, 151, 152, 153, 154, 155, 156, 157, 158, 159, 160, 161, 162, 163, 164, 165, 166, 167, 168, 169, 170, 171, 172, 173, 174, 175, 176, 177, 178, 179, 180, 181, 182, 183, 184, 185, 186, 187, 188, 189, 190, 191, 192, 193, 194, 195, 196, 197, 198, 199, 200, 201, 202, 203, 204, 205, 206, 207, 208, 209, 210, 211, 212, 213, 214, 215, 216, 217, 218, 219, 220, 221, 222, 223, 224, 225, 226, 227, 228, 229, 230, 231, 232, 233, 234, 235, 236, 237, 238, 239, 240, 241, 242, 243, 244, 245, 246, 247, 248, 249, 250, 251, 252, 253, 254, 255, 256, 257, 258, 259, 260, 261, 262, 263, 264, 265, 266, 267, 268, 269, 270, 271, 272, 273, 274, 275, 276, 277, 278, 279, 280, 281, 282, 283, 284, 285, 286, 287, 288, 289, 290, 291, 292, 293, 294, 295, 296, 297, 298, 299, 300, 301, 302, 303, 304, 305, 306, 307, 308, 309, 310, 311, 312, 313, 314, 315, 316, 317, 318, 319, 320, 321, 322, 323, 324, 325, 326, 327, 328, 329, 330, 331, 332, 333, 334, 335, 336, 337, 338, 339, 340, 341, 342, 343, 344, 345, 346, 347, 348, 349, 350, 351, 352, 353, 354, 355, 356, 357, 358, 359, 360, 361, 362, 363, 364, 365, 366, 367, 368, 369, 370, 371, 372, 373, 374, 375, 376, 377, 378, 379, 380, 381, 382, 383, 384, 385, 386, 387, 388, 389, 390, 391, 392, 393, 394, 395, 396, 397, 398, 399, 400],
